Timestamp,ESP32_Data,Manual
1759848213.1168787,"ECG,,,,,,,,,,2175",0
1759848213.4044285,"ECG,,,,,,,,,,2216",0
1759848213.405429,"ECG,,,,,,,,,,2238",0
1759848213.405429,"ECG,,,,,,,,,,2425",0
1759848213.4064279,"ECG,,,,,,,,,,2794",0
1759848213.4064279,"ECG,,,,,,,,,,2958",0
1759848213.4074275,"ECG,,,,,,,,,,2910",0
1759848213.4074275,"ECG,,,,,,,,,,2604",0
1759848213.4084275,"ECG,,,,,,,,,,2170",0
1759848213.4084275,"ECG,,,,,,,,,,1787",0
1759848213.411429,"ECG,,,,,,,,,,2168",0
1759848213.412432,"ECG,,,,,,,,,,2201",0
1759848213.412432,"ECG,,,,,,,,,,2233",0
1759848213.4134283,"ECG,,,,,,,,,,2414",0
1759848213.4144285,"ECG,,,,,,,,,,2793",0
1759848213.4144285,"ECG,,,,,,,,,,2970",0
1759848213.415428,"ECG,,,,,,,,,,2920",0
1759848213.415428,"ECG,,,,,,,,,,2606",0
1759848213.4164312,"ECG,,,,,,,,,,2167",0
1759848213.4174302,"ECG,,,,,,,,,,1770",0
1759848213.4204288,"ECG,,,,,,,,,,2143",0
1759848213.421438,"ECG,,,,,,,,,,2183",0
1759848213.421438,"ECG,,,,,,,,,,2206",0
1759848213.4224331,"ECG,,,,,,,,,,2397",0
1759848213.4224331,"ECG,,,,,,,,,,2775",0
1759848213.4234316,"ECG,,,,,,,,,,2955",0
1759848213.4234316,"ECG,,,,,,,,,,2911",0
1759848213.4244306,"ECG,,,,,,,,,,2605",0
1759848213.4244306,"ECG,,,,,,,,,,2170",0
1759848213.4254327,"ECG,,,,,,,,,,1786",0
1759848213.4284298,"ECG,,,,,,,,,,2153",0
1759848213.4284298,"ECG,,,,,,,,,,2185",0
1759848213.4294412,"ECG,,,,,,,,,,2215",0
1759848213.4304345,"ECG,,,,,,,,,,2396",0
1759848213.4304345,"ECG,,,,,,,,,,2765",0
1759848213.4314291,"ECG,,,,,,,,,,2938",0
1759848213.4324312,"ECG,,,,,,,,,,2892",0
1759848213.4334316,"ECG,,,,,,,,,,2602",0
1759848213.4334316,"ECG,,,,,,,,,,2160",0
1759848213.4344294,"ECG,,,,,,,,,,1774",0
1759848213.437429,"ECG,,,,,,,,,,2143",0
1759848213.437429,"ECG,,,,,,,,,,2174",0
1759848213.4384327,"ECG,,,,,,,,,,2207",0
1759848213.4384327,"ECG,,,,,,,,,,2393",0
1759848213.4394326,"ECG,,,,,,,,,,2761",0
1759848213.44043,"ECG,,,,,,,,,,2938",0
1759848213.44043,"ECG,,,,,,,,,,2891",0
1759848213.4414327,"ECG,,,,,,,,,,2591",0
1759848213.4414327,"ECG,,,,,,,,,,2153",0
1759848213.442432,"ECG,,,,,,,,,,1768",0
1759848213.4484317,"ECG,,,,,,,,,,2120",0
1759848213.4494336,"ECG,,,,,,,,,,2152",0
1759848213.4504323,"ECG,,,,,,,,,,2176",0
1759848213.4514291,"ECG,,,,,,,,,,2365",0
1759848213.4524317,"ECG,,,,,,,,,,2745",0
1759848213.4524317,"ECG,,,,,,,,,,2924",0
1759848213.4534297,"ECG,,,,,,,,,,2878",0
1759848213.4544308,"ECG,,,,,,,,,,2574",0
1759848213.4554305,"ECG,,,,,,,,,,2137",0
1759848213.4554305,"ECG,,,,,,,,,,1751",0
1759848213.4594343,"ECG,,,,,,,,,,2106",0
1759848213.460431,"ECG,,,,,,,,,,2138",0
1759848213.460431,"ECG,,,,,,,,,,2173",0
1759848213.461428,"ECG,,,,,,,,,,2362",0
1759848213.461428,"ECG,,,,,,,,,,2735",0
1759848213.4624298,"ECG,,,,,,,,,,2923",0
1759848213.4634283,"ECG,,,,,,,,,,2888",0
1759848213.4644303,"ECG,,,,,,,,,,2590",0
1759848213.4644303,"ECG,,,,,,,,,,2152",0
1759848213.465429,"ECG,,,,,,,,,,1774",0
1759848213.46943,"ECG,,,,,,,,,,2121",0
1759848213.46943,"ECG,,,,,,,,,,2152",0
1759848213.470432,"ECG,,,,,,,,,,2184",0
1759848213.4714332,"ECG,,,,,,,,,,2366",0
1759848213.4714332,"ECG,,,,,,,,,,2736",0
1759848213.47243,"ECG,,,,,,,,,,2924",0
1759848213.47243,"ECG,,,,,,,,,,2891",0
1759848213.4734292,"ECG,,,,,,,,,,2592",0
1759848213.4734292,"ECG,,,,,,,,,,2156",0
1759848213.4744287,"ECG,,,,,,,,,,1775",0
1759848213.4774292,"ECG,,,,,,,,,,2136",0
1759848213.478434,"ECG,,,,,,,,,,2170",0
1759848213.4794316,"ECG,,,,,,,,,,2201",0
1759848213.4794316,"ECG,,,,,,,,,,2381",0
1759848213.4804296,"ECG,,,,,,,,,,2759",0
1759848213.4804296,"ECG,,,,,,,,,,2936",0
1759848213.4814308,"ECG,,,,,,,,,,2894",0
1759848213.4814308,"ECG,,,,,,,,,,2600",0
1759848213.48243,"ECG,,,,,,,,,,2153",0
1759848213.48243,"ECG,,,,,,,,,,1771",0
1759848213.4864306,"ECG,,,,,,,,,,2125",0
1759848213.4874353,"ECG,,,,,,,,,,2155",0
1759848213.4874353,"ECG,,,,,,,,,,2186",0
1759848213.4884365,"ECG,,,,,,,,,,2378",0
1759848213.4894338,"ECG,,,,,,,,,,2749",0
1759848213.4894338,"ECG,,,,,,,,,,2936",0
1759848213.4904292,"ECG,,,,,,,,,,2894",0
1759848213.4904292,"ECG,,,,,,,,,,2600",0
1759848213.4914286,"ECG,,,,,,,,,,2155",0
1759848213.4924285,"ECG,,,,,,,,,,1768",0
1759848213.4964316,"ECG,,,,,,,,,,2139",0
1759848213.4964316,"ECG,,,,,,,,,,2171",0
1759848213.4974313,"ECG,,,,,,,,,,2204",0
1759848213.4974313,"ECG,,,,,,,,,,2395",0
1759848213.498431,"ECG,,,,,,,,,,2768",0
1759848213.498431,"ECG,,,,,,,,,,2953",0
1759848213.4994292,"ECG,,,,,,,,,,2906",0
1759848213.50043,"ECG,,,,,,,,,,2603",0
1759848213.50043,"ECG,,,,,,,,,,2160",0
1759848213.5014324,"ECG,,,,,,,,,,1773",0
1759848213.5054295,"ECG,,,,,,,,,,2137",0
1759848213.5064347,"ECG,,,,,,,,,,2168",0
1759848213.5064347,"ECG,,,,,,,,,,2199",0
1759848213.5074296,"ECG,,,,,,,,,,2391",0
1759848213.5084302,"ECG,,,,,,,,,,2762",0
1759848213.5084302,"ECG,,,,,,,,,,2941",0
1759848213.5094323,"ECG,,,,,,,,,,2904",0
1759848213.510433,"ECG,,,,,,,,,,2607",0
1759848213.5114357,"ECG,,,,,,,,,,2174",0
1759848213.5114357,"ECG,,,,,,,,,,1789",0
1759848213.5164402,"ECG,,,,,,,,,,2140",0
1759848213.5164402,"ECG,,,,,,,,,,2171",0
1759848213.5174332,"ECG,,,,,,,,,,2202",0
1759848213.5184338,"ECG,,,,,,,,,,2394",0
1759848213.5184338,"ECG,,,,,,,,,,2766",0
1759848213.519433,"ECG,,,,,,,,,,2958",0
1759848213.520434,"ECG,,,,,,,,,,2921",0
1759848213.520434,"ECG,,,,,,,,,,2618",0
1759848213.521431,"ECG,,,,,,,,,,2183",0
1759848213.5224328,"ECG,,,,,,,,,,1789",0
1759848213.5264316,"ECG,,,,,,,,,,2123",0
1759848213.5274315,"ECG,,,,,,,,,,2155",0
1759848213.5284317,"ECG,,,,,,,,,,2187",0
1759848213.5284317,"ECG,,,,,,,,,,2377",0
1759848213.5294306,"ECG,,,,,,,,,,2748",0
1759848213.5304315,"ECG,,,,,,,,,,2924",0
1759848213.5314355,"ECG,,,,,,,,,,2889",0
1759848213.5314355,"ECG,,,,,,,,,,2591",0
1759848213.532433,"ECG,,,,,,,,,,2168",0
1759848213.532433,"ECG,,,,,,,,,,1790",0
1759848213.5364316,"ECG,,,,,,,,,,2167",0
1759848213.5374432,"ECG,,,,,,,,,,2198",0
1759848213.5384333,"ECG,,,,,,,,,,2224",0
1759848213.5384333,"ECG,,,,,,,,,,2413",0
1759848213.5394297,"ECG,,,,,,,,,,2780",0
1759848213.5394297,"ECG,,,,,,,,,,2955",0
1759848213.5404286,"ECG,,,,,,,,,,2908",0
1759848213.5414302,"ECG,,,,,,,,,,2618",0
1759848213.5414302,"ECG,,,,,,,,,,2185",0
1759848213.5424287,"ECG,,,,,,,,,,1801",0
1759848213.5464334,"ECG,,,,,,,,,,2141",0
1759848213.5474312,"ECG,,,,,,,,,,2174",0
1759848213.5484304,"ECG,,,,,,,,,,2205",0
1759848213.5484304,"ECG,,,,,,,,,,2393",0
1759848213.5494301,"ECG,,,,,,,,,,2767",0
1759848213.550429,"ECG,,,,,,,,,,2957",0
1759848213.550429,"ECG,,,,,,,,,,2923",0
1759848213.5514328,"ECG,,,,,,,,,,2623",0
1759848213.5524318,"ECG,,,,,,,,,,2183",0
1759848213.5524318,"ECG,,,,,,,,,,1791",0
1759848213.556434,"ECG,,,,,,,,,,2136",0
1759848213.5574372,"ECG,,,,,,,,,,2168",0
1759848213.5584342,"ECG,,,,,,,,,,2199",0
1759848213.5584342,"ECG,,,,,,,,,,2379",0
1759848213.5594301,"ECG,,,,,,,,,,2760",0
1759848213.5604289,"ECG,,,,,,,,,,2944",0
1759848213.5604289,"ECG,,,,,,,,,,2921",0
1759848213.5614321,"ECG,,,,,,,,,,2623",0
1759848213.5624309,"ECG,,,,,,,,,,2186",0
1759848213.5624309,"ECG,,,,,,,,,,1790",0
1759848213.5664327,"ECG,,,,,,,,,,2140",0
1759848213.567432,"ECG,,,,,,,,,,2172",0
1759848213.567432,"ECG,,,,,,,,,,2203",0
1759848213.5684302,"ECG,,,,,,,,,,2393",0
1759848213.5684302,"ECG,,,,,,,,,,2767",0
1759848213.56943,"ECG,,,,,,,,,,2957",0
1759848213.56943,"ECG,,,,,,,,,,2935",0
1759848213.5704288,"ECG,,,,,,,,,,2635",0
1759848213.5714314,"ECG,,,,,,,,,,2189",0
1759848213.5714314,"ECG,,,,,,,,,,1791",0
1759848213.5754337,"ECG,,,,,,,,,,2150",0
1759848213.5764365,"ECG,,,,,,,,,,2174",0
1759848213.5764365,"ECG,,,,,,,,,,2205",0
1759848213.5774305,"ECG,,,,,,,,,,2395",0
1759848213.5784304,"ECG,,,,,,,,,,2775",0
1759848213.5794363,"ECG,,,,,,,,,,2956",0
1759848213.5804324,"ECG,,,,,,,,,,2922",0
1759848213.5804324,"ECG,,,,,,,,,,2621",0
1759848213.581429,"ECG,,,,,,,,,,2182",0
1759848213.581429,"ECG,,,,,,,,,,1797",0
1759848213.5854325,"ECG,,,,,,,,,,2151",0
1759848213.5864308,"ECG,,,,,,,,,,2183",0
1759848213.5874288,"ECG,,,,,,,,,,2205",0
1759848213.5874288,"ECG,,,,,,,,,,2398",0
1759848213.5884278,"ECG,,,,,,,,,,2776",0
1759848213.58943,"ECG,,,,,,,,,,2957",0
1759848213.58943,"ECG,,,,,,,,,,2921",0
1759848213.59043,"ECG,,,,,,,,,,2623",0
1759848213.59043,"ECG,,,,,,,,,,2188",0
1759848213.5914304,"ECG,,,,,,,,,,1800",0
1759848213.5954328,"ECG,,,,,,,,,,2153",0
1759848213.5964375,"ECG,,,,,,,,,,2184",0
1759848213.5964375,"ECG,,,,,,,,,,2207",0
1759848213.597432,"ECG,,,,,,,,,,2398",0
1759848213.5984297,"ECG,,,,,,,,,,2781",0
1759848213.5994332,"ECG,,,,,,,,,,2971",0
1759848213.5994332,"ECG,,,,,,,,,,2938",0
1759848213.6004333,"ECG,,,,,,,,,,2637",0
1759848213.6014316,"ECG,,,,,,,,,,2198",0
1759848213.6014316,"ECG,,,,,,,,,,1801",0
1759848213.6054306,"ECG,,,,,,,,,,2123",0
1759848213.6054306,"ECG,,,,,,,,,,2156",0
1759848213.6064308,"ECG,,,,,,,,,,2188",0
1759848213.6064308,"ECG,,,,,,,,,,2382",0
1759848213.607431,"ECG,,,,,,,,,,2766",0
1759848213.6084304,"ECG,,,,,,,,,,2968",0
1759848213.6084304,"ECG,,,,,,,,,,2937",0
1759848213.6094277,"ECG,,,,,,,,,,2639",0
1759848213.6094277,"ECG,,,,,,,,,,2204",0
1759848213.6104274,"ECG,,,,,,,,,,1817",0
1759848213.6134295,"ECG,,,,,,,,,,2137",0
1759848213.6144347,"ECG,,,,,,,,,,2169",0
1759848213.6144347,"ECG,,,,,,,,,,2199",0
1759848213.6154308,"ECG,,,,,,,,,,2390",0
1759848213.616431,"ECG,,,,,,,,,,2764",0
1759848213.6174297,"ECG,,,,,,,,,,2955",0
1759848213.6184278,"ECG,,,,,,,,,,2923",0
1759848213.6184278,"ECG,,,,,,,,,,2632",0
1759848213.6194293,"ECG,,,,,,,,,,2201",0
1759848213.6194293,"ECG,,,,,,,,,,1815",0
1759848213.6234293,"ECG,,,,,,,,,,2136",0
1759848213.6244304,"ECG,,,,,,,,,,2167",0
1759848213.6244304,"ECG,,,,,,,,,,2191",0
1759848213.6254292,"ECG,,,,,,,,,,2382",0
1759848213.6264303,"ECG,,,,,,,,,,2762",0
1759848213.6264303,"ECG,,,,,,,,,,2952",0
1759848213.6274297,"ECG,,,,,,,,,,2921",0
1759848213.6284282,"ECG,,,,,,,,,,2631",0
1759848213.6284282,"ECG,,,,,,,,,,2189",0
1759848213.6294332,"ECG,,,,,,,,,,1800",0
1759848213.6324294,"ECG,,,,,,,,,,2127",0
1759848213.6334298,"ECG,,,,,,,,,,2160",0
1759848213.6344333,"ECG,,,,,,,,,,2190",0
1759848213.63543,"ECG,,,,,,,,,,2382",0
1759848213.63543,"ECG,,,,,,,,,,2761",0
1759848213.6364295,"ECG,,,,,,,,,,2954",0
1759848213.6364295,"ECG,,,,,,,,,,2918",0
1759848213.6374292,"ECG,,,,,,,,,,2624",0
1759848213.6384282,"ECG,,,,,,,,,,2191",0
1759848213.6384282,"ECG,,,,,,,,,,1804",0
1759848213.6424303,"ECG,,,,,,,,,,2125",0
1759848213.6424303,"ECG,,,,,,,,,,2157",0
1759848213.6434338,"ECG,,,,,,,,,,2188",0
1759848213.644431,"ECG,,,,,,,,,,2380",0
1759848213.644431,"ECG,,,,,,,,,,2760",0
1759848213.6454306,"ECG,,,,,,,,,,2954",0
1759848213.646431,"ECG,,,,,,,,,,2926",0
1759848213.646431,"ECG,,,,,,,,,,2637",0
1759848213.6474304,"ECG,,,,,,,,,,2204",0
1759848213.6484294,"ECG,,,,,,,,,,1821",0
1759848213.6514294,"ECG,,,,,,,,,,2141",0
1759848213.652431,"ECG,,,,,,,,,,2172",0
1759848213.652431,"ECG,,,,,,,,,,2203",0
1759848213.6534276,"ECG,,,,,,,,,,2395",0
1759848213.6544297,"ECG,,,,,,,,,,2776",0
1759848213.6544297,"ECG,,,,,,,,,,2970",0
1759848213.6554286,"ECG,,,,,,,,,,2937",0
1759848213.6564298,"ECG,,,,,,,,,,2648",0
1759848213.6564298,"ECG,,,,,,,,,,2207",0
1759848213.6574278,"ECG,,,,,,,,,,1820",0
1759848213.6604292,"ECG,,,,,,,,,,2139",0
1759848213.6614354,"ECG,,,,,,,,,,2170",0
1759848213.662432,"ECG,,,,,,,,,,2199",0
1759848213.662432,"ECG,,,,,,,,,,2380",0
1759848213.663428,"ECG,,,,,,,,,,2761",0
1759848213.6644304,"ECG,,,,,,,,,,2951",0
1759848213.6644304,"ECG,,,,,,,,,,2921",0
1759848213.6654294,"ECG,,,,,,,,,,2636",0
1759848213.6654294,"ECG,,,,,,,,,,2204",0
1759848213.667428,"ECG,,,,,,,,,,1815",0
1759848213.6764297,"ECG,,,,,,,,,,2151",0
1759848213.6774335,"ECG,,,,,,,,,,2175",0
1759848213.6774335,"ECG,,,,,,,,,,2203",0
1759848213.6784303,"ECG,,,,,,,,,,2394",0
1759848213.6794367,"ECG,,,,,,,,,,2775",0
1759848213.6794367,"ECG,,,,,,,,,,2957",0
1759848213.681428,"ECG,,,,,,,,,,2926",0
1759848213.6834278,"ECG,,,,,,,,,,2637",0
1759848213.6854327,"ECG,,,,,,,,,,2204",0
1759848213.6874278,"ECG,,,,,,,,,,1818",0
1759848213.6964316,"ECG,,,,,,,,,,2142",0
1759848213.6974318,"ECG,,,,,,,,,,2173",0
1759848213.6984284,"ECG,,,,,,,,,,2203",0
1759848213.6984284,"ECG,,,,,,,,,,2395",0
1759848213.6994298,"ECG,,,,,,,,,,2776",0
1759848213.6994298,"ECG,,,,,,,,,,2968",0
1759848213.7014296,"ECG,,,,,,,,,,2936",0
1759848213.703431,"ECG,,,,,,,,,,2652",0
1759848213.7054348,"ECG,,,,,,,,,,2221",0
1759848213.7074294,"ECG,,,,,,,,,,1832",0
1759848213.7164342,"ECG,,,,,,,,,,2138",0
1759848213.7174523,"ECG,,,,,,,,,,2170",0
1759848213.7174523,"ECG,,,,,,,,,,2200",0
1759848213.7184384,"ECG,,,,,,,,,,2383",0
1759848213.719428,"ECG,,,,,,,,,,2763",0
1759848213.719428,"ECG,,,,,,,,,,2955",0
1759848213.7214282,"ECG,,,,,,,,,,2936",0
1759848213.7234282,"ECG,,,,,,,,,,2648",0
1759848213.7254364,"ECG,,,,,,,,,,2205",0
1759848213.7274284,"ECG,,,,,,,,,,1830",0
1759848213.7364318,"ECG,,,,,,,,,,2142",0
1759848213.7374325,"ECG,,,,,,,,,,2174",0
1759848213.7374325,"ECG,,,,,,,,,,2206",0
1759848213.738432,"ECG,,,,,,,,,,2395",0
1759848213.738432,"ECG,,,,,,,,,,2776",0
1759848213.7394278,"ECG,,,,,,,,,,2957",0
1759848213.7414343,"ECG,,,,,,,,,,2926",0
1759848213.7434301,"ECG,,,,,,,,,,2647",0
1759848213.7454298,"ECG,,,,,,,,,,2206",0
1759848213.748433,"ECG,,,,,,,,,,1820",0
1759848213.7564316,"ECG,,,,,,,,,,2125",0
1759848213.757437,"ECG,,,,,,,,,,2158",0
1759848213.757437,"ECG,,,,,,,,,,2187",0
1759848213.758431,"ECG,,,,,,,,,,2376",0
1759848213.758431,"ECG,,,,,,,,,,2749",0
1759848213.7594295,"ECG,,,,,,,,,,2942",0
1759848213.7614293,"ECG,,,,,,,,,,2921",0
1759848213.7634282,"ECG,,,,,,,,,,2638",0
1759848213.7664325,"ECG,,,,,,,,,,2206",0
1759848213.7674358,"ECG,,,,,,,,,,1820",0
1759848213.7764304,"ECG,,,,,,,,,,2121",0
1759848213.7764304,"ECG,,,,,,,,,,2154",0
1759848213.7774327,"ECG,,,,,,,,,,2176",0
1759848213.7784283,"ECG,,,,,,,,,,2367",0
1759848213.7784283,"ECG,,,,,,,,,,2760",0
1759848213.7804346,"ECG,,,,,,,,,,2958",0
1759848213.781434,"ECG,,,,,,,,,,2940",0
1759848213.7834294,"ECG,,,,,,,,,,2653",0
1759848213.7864325,"ECG,,,,,,,,,,2218",0
1759848213.7874312,"ECG,,,,,,,,,,1819",0
1759848213.7964318,"ECG,,,,,,,,,,2140",0
1759848213.797437,"ECG,,,,,,,,,,2172",0
1759848213.7984312,"ECG,,,,,,,,,,2201",0
1759848213.7984312,"ECG,,,,,,,,,,2392",0
1759848213.7994292,"ECG,,,,,,,,,,2765",0
1759848213.7994292,"ECG,,,,,,,,,,2956",0
1759848213.8014302,"ECG,,,,,,,,,,2923",0
1759848213.8034334,"ECG,,,,,,,,,,2632",0
1759848213.805431,"ECG,,,,,,,,,,2203",0
1759848213.8074307,"ECG,,,,,,,,,,1806",0
1759848213.8174334,"ECG,,,,,,,,,,2121",0
1759848213.8184307,"ECG,,,,,,,,,,2155",0
1759848213.8194323,"ECG,,,,,,,,,,2185",0
1759848213.8194323,"ECG,,,,,,,,,,2377",0
1759848213.820431,"ECG,,,,,,,,,,2763",0
1759848213.821435,"ECG,,,,,,,,,,2969",0
1759848213.821435,"ECG,,,,,,,,,,2950",0
1759848213.8234305,"ECG,,,,,,,,,,2653",0
1759848213.8254294,"ECG,,,,,,,,,,2222",0
1759848213.8274293,"ECG,,,,,,,,,,1823",0
1759848213.8374312,"ECG,,,,,,,,,,2109",0
1759848213.838433,"ECG,,,,,,,,,,2140",0
1759848213.8394294,"ECG,,,,,,,,,,2173",0
1759848213.840429,"ECG,,,,,,,,,,2360",0
1759848213.8414304,"ECG,,,,,,,,,,2734",0
1759848213.8424318,"ECG,,,,,,,,,,2938",0
1759848213.8424318,"ECG,,,,,,,,,,2919",0
1759848213.8434296,"ECG,,,,,,,,,,2635",0
1759848213.8454318,"ECG,,,,,,,,,,2216",0
1759848213.8474278,"ECG,,,,,,,,,,1820",0
1759848213.8564324,"ECG,,,,,,,,,,2111",0
1759848213.857435,"ECG,,,,,,,,,,2143",0
1759848213.858434,"ECG,,,,,,,,,,2173",0
1759848213.858434,"ECG,,,,,,,,,,2362",0
1759848213.8594353,"ECG,,,,,,,,,,2744",0
1759848213.8604324,"ECG,,,,,,,,,,2937",0
1759848213.8614337,"ECG,,,,,,,,,,2922",0
1759848213.8644342,"ECG,,,,,,,,,,2638",0
1759848213.8654315,"ECG,,,,,,,,,,2206",0
1759848213.867432,"ECG,,,,,,,,,,1820",0
1759848213.8774307,"ECG,,,,,,,,,,2125",0
1759848213.8774307,"ECG,,,,,,,,,,2158",0
1759848213.8784344,"ECG,,,,,,,,,,2189",0
1759848213.879433,"ECG,,,,,,,,,,2377",0
1759848213.8804317,"ECG,,,,,,,,,,2761",0
1759848213.8804317,"ECG,,,,,,,,,,2952",0
1759848213.8814313,"ECG,,,,,,,,,,2925",0
1759848213.8834321,"ECG,,,,,,,,,,2636",0
1759848213.8854322,"ECG,,,,,,,,,,2206",0
1759848213.8874338,"ECG,,,,,,,,,,1819",0
1759848213.89643,"ECG,,,,,,,,,,2122",0
1759848213.8974347,"ECG,,,,,,,,,,2155",0
1759848213.8974347,"ECG,,,,,,,,,,2184",0
1759848213.898435,"ECG,,,,,,,,,,2366",0
1759848213.8994312,"ECG,,,,,,,,,,2746",0
1759848213.8994312,"ECG,,,,,,,,,,2937",0
1759848213.901433,"ECG,,,,,,,,,,2909",0
1759848213.9034321,"ECG,,,,,,,,,,2631",0
1759848213.9054341,"ECG,,,,,,,,,,2201",0
1759848213.9074316,"ECG,,,,,,,,,,1806",0
1759848213.9164329,"ECG,,,,,,,,,,2136",0
1759848213.9174354,"ECG,,,,,,,,,,2169",0
1759848213.9174354,"ECG,,,,,,,,,,2192",0
1759848213.918437,"ECG,,,,,,,,,,2383",0
1759848213.9194355,"ECG,,,,,,,,,,2767",0
1759848213.9194355,"ECG,,,,,,,,,,2968",0
1759848213.9214325,"ECG,,,,,,,,,,2942",0
1759848213.9234316,"ECG,,,,,,,,,,2656",0
1759848213.9254317,"ECG,,,,,,,,,,2230",0
1759848213.9284327,"ECG,,,,,,,,,,1835",0
1759848213.9364324,"ECG,,,,,,,,,,2109",0
1759848213.93743,"ECG,,,,,,,,,,2140",0
1759848213.93743,"ECG,,,,,,,,,,2171",0
1759848213.9384294,"ECG,,,,,,,,,,2361",0
1759848213.9394293,"ECG,,,,,,,,,,2743",0
1759848213.9394293,"ECG,,,,,,,,,,2940",0
1759848213.9414318,"ECG,,,,,,,,,,2923",0
1759848213.9434333,"ECG,,,,,,,,,,2646",0
1759848213.945429,"ECG,,,,,,,,,,2206",0
1759848213.9474301,"ECG,,,,,,,,,,1817",0
1759848213.9564323,"ECG,,,,,,,,,,2093",0
1759848213.9574327,"ECG,,,,,,,,,,2125",0
1759848213.9584322,"ECG,,,,,,,,,,2157",0
1759848213.9584322,"ECG,,,,,,,,,,2347",0
1759848213.9594285,"ECG,,,,,,,,,,2732",0
1759848213.9594285,"ECG,,,,,,,,,,2939",0
1759848213.9614422,"ECG,,,,,,,,,,2935",0
1759848213.9634342,"ECG,,,,,,,,,,2650",0
1759848213.9654336,"ECG,,,,,,,,,,2221",0
1759848213.967432,"ECG,,,,,,,,,,1835",0
1759848213.9784315,"ECG,,,,,,,,,,2122",0
1759848213.9794285,"ECG,,,,,,,,,,2154",0
1759848213.9794285,"ECG,,,,,,,,,,2183",0
1759848213.98043,"ECG,,,,,,,,,,2365",0
1759848213.9814336,"ECG,,,,,,,,,,2748",0
1759848213.982431,"ECG,,,,,,,,,,2941",0
1759848213.982431,"ECG,,,,,,,,,,2925",0
1759848213.9839747,"ECG,,,,,,,,,,2648",0
1759848213.9859736,"ECG,,,,,,,,,,2217",0
1759848213.9879735,"ECG,,,,,,,,,,1822",0
1759848213.9969752,"ECG,,,,,,,,,,2107",0
1759848213.9969752,"ECG,,,,,,,,,,2138",0
1759848213.9979722,"ECG,,,,,,,,,,2168",0
1759848213.9989722,"ECG,,,,,,,,,,2352",0
1759848213.9989722,"ECG,,,,,,,,,,2734",0
1759848213.999972,"ECG,,,,,,,,,,2928",0
1759848214.0019722,"ECG,,,,,,,,,,2910",0
1759848214.003972,"ECG,,,,,,,,,,2639",0
1759848214.0059748,"ECG,,,,,,,,,,2205",0
1759848214.0079718,"ECG,,,,,,,,,,1817",0
1759848214.0169783,"ECG,,,,,,,,,,2124",0
1759848214.0169783,"ECG,,,,,,,,,,2156",0
1759848214.0179753,"ECG,,,,,,,,,,2186",0
1759848214.0189736,"ECG,,,,,,,,,,2367",0
1759848214.0189736,"ECG,,,,,,,,,,2760",0
1759848214.019972,"ECG,,,,,,,,,,2966",0
1759848214.021974,"ECG,,,,,,,,,,2944",0
1759848214.0239744,"ECG,,,,,,,,,,2680",0
1759848214.0259736,"ECG,,,,,,,,,,2251",0
1759848214.0279768,"ECG,,,,,,,,,,1852",0
1759848214.0364943,"ECG,,,,,,,,,,2111",0
1759848214.0364943,"ECG,,,,,,,,,,2143",0
1759848214.037497,"ECG,,,,,,,,,,2173",0
1759848214.0384924,"ECG,,,,,,,,,,2360",0
1759848214.0384924,"ECG,,,,,,,,,,2735",0
1759848214.0394912,"ECG,,,,,,,,,,2940",0
1759848214.0414946,"ECG,,,,,,,,,,2924",0
1759848214.0434916,"ECG,,,,,,,,,,2650",0
1759848214.045493,"ECG,,,,,,,,,,2217",0
1759848214.047491,"ECG,,,,,,,,,,1821",0
1759848214.0564957,"ECG,,,,,,,,,,2124",0
1759848214.0575006,"ECG,,,,,,,,,,2157",0
1759848214.0584936,"ECG,,,,,,,,,,2186",0
1759848214.0584936,"ECG,,,,,,,,,,2366",0
1759848214.0594954,"ECG,,,,,,,,,,2749",0
1759848214.0594954,"ECG,,,,,,,,,,2953",0
1759848214.0614913,"ECG,,,,,,,,,,2936",0
1759848214.063491,"ECG,,,,,,,,,,2651",0
1759848214.0654936,"ECG,,,,,,,,,,2221",0
1759848214.0674913,"ECG,,,,,,,,,,1833",0
1759848214.0764928,"ECG,,,,,,,,,,2123",0
1759848214.0764928,"ECG,,,,,,,,,,2155",0
1759848214.0774953,"ECG,,,,,,,,,,2186",0
1759848214.0774953,"ECG,,,,,,,,,,2367",0
1759848214.0784945,"ECG,,,,,,,,,,2760",0
1759848214.0794942,"ECG,,,,,,,,,,2955",0
1759848214.081492,"ECG,,,,,,,,,,2940",0
1759848214.0834935,"ECG,,,,,,,,,,2664",0
1759848214.0854945,"ECG,,,,,,,,,,2231",0
1759848214.0874932,"ECG,,,,,,,,,,1834",0
1759848214.0964935,"ECG,,,,,,,,,,2108",0
1759848214.0975003,"ECG,,,,,,,,,,2138",0
1759848214.0975003,"ECG,,,,,,,,,,2169",0
1759848214.098495,"ECG,,,,,,,,,,2350",0
1759848214.0994985,"ECG,,,,,,,,,,2732",0
1759848214.100499,"ECG,,,,,,,,,,2939",0
1759848214.1014943,"ECG,,,,,,,,,,2921",0
1759848214.1034975,"ECG,,,,,,,,,,2651",0
1759848214.105494,"ECG,,,,,,,,,,2224",0
1759848214.1074927,"ECG,,,,,,,,,,1836",0
1759848214.1164935,"ECG,,,,,,,,,,2120",0
1759848214.117494,"ECG,,,,,,,,,,2154",0
1759848214.1185,"ECG,,,,,,,,,,2182",0
1759848214.1185,"ECG,,,,,,,,,,2366",0
1759848214.1194973,"ECG,,,,,,,,,,2751",0
1759848214.1194973,"ECG,,,,,,,,,,2955",0
1759848214.121495,"ECG,,,,,,,,,,2942",0
1759848214.1234922,"ECG,,,,,,,,,,2666",0
1759848214.125494,"ECG,,,,,,,,,,2235",0
1759848214.1274931,"ECG,,,,,,,,,,1839",0
1759848214.1364923,"ECG,,,,,,,,,,2109",0
1759848214.1364923,"ECG,,,,,,,,,,2144",0
1759848214.137494,"ECG,,,,,,,,,,2172",0
1759848214.137494,"ECG,,,,,,,,,,2352",0
1759848214.1384947,"ECG,,,,,,,,,,2731",0
1759848214.1394913,"ECG,,,,,,,,,,2936",0
1759848214.1414948,"ECG,,,,,,,,,,2912",0
1759848214.143491,"ECG,,,,,,,,,,2637",0
1759848214.1454937,"ECG,,,,,,,,,,2205",0
1759848214.1474938,"ECG,,,,,,,,,,1817",0
1759848214.1564958,"ECG,,,,,,,,,,2090",0
1759848214.1574929,"ECG,,,,,,,,,,2123",0
1759848214.1574929,"ECG,,,,,,,,,,2155",0
1759848214.1584914,"ECG,,,,,,,,,,2344",0
1759848214.1584914,"ECG,,,,,,,,,,2730",0
1759848214.159491,"ECG,,,,,,,,,,2941",0
1759848214.1614926,"ECG,,,,,,,,,,2940",0
1759848214.1634965,"ECG,,,,,,,,,,2669",0
1759848214.1654925,"ECG,,,,,,,,,,2250",0
1759848214.1674976,"ECG,,,,,,,,,,1854",0
1759848214.176496,"ECG,,,,,,,,,,2120",0
1759848214.1774974,"ECG,,,,,,,,,,2154",0
1759848214.1774974,"ECG,,,,,,,,,,2174",0
1759848214.1784918,"ECG,,,,,,,,,,2363",0
1759848214.1794941,"ECG,,,,,,,,,,2746",0
1759848214.1794941,"ECG,,,,,,,,,,2954",0
1759848214.1814942,"ECG,,,,,,,,,,2938",0
1759848214.1834974,"ECG,,,,,,,,,,2666",0
1759848214.1854918,"ECG,,,,,,,,,,2231",0
1759848214.187492,"ECG,,,,,,,,,,1834",0
1759848214.1964946,"ECG,,,,,,,,,,2092",0
1759848214.1974943,"ECG,,,,,,,,,,2126",0
1759848214.1974943,"ECG,,,,,,,,,,2154",0
1759848214.1984975,"ECG,,,,,,,,,,2343",0
1759848214.1984975,"ECG,,,,,,,,,,2732",0
1759848214.199495,"ECG,,,,,,,,,,2938",0
1759848214.201498,"ECG,,,,,,,,,,2925",0
1759848214.2034926,"ECG,,,,,,,,,,2665",0
1759848214.2054915,"ECG,,,,,,,,,,2235",0
1759848214.2074986,"ECG,,,,,,,,,,1840",0
1759848214.216496,"ECG,,,,,,,,,,2110",0
1759848214.2174978,"ECG,,,,,,,,,,2140",0
1759848214.2184975,"ECG,,,,,,,,,,2170",0
1759848214.2184975,"ECG,,,,,,,,,,2361",0
1759848214.2194965,"ECG,,,,,,,,,,2751",0
1759848214.2194965,"ECG,,,,,,,,,,2966",0
1759848214.2214935,"ECG,,,,,,,,,,2955",0
1759848214.2245,"ECG,,,,,,,,,,2683",0
1759848214.2254972,"ECG,,,,,,,,,,2263",0
1759848214.2274976,"ECG,,,,,,,,,,1866",0
1759848214.237499,"ECG,,,,,,,,,,2127",0
1759848214.2384999,"ECG,,,,,,,,,,2159",0
1759848214.2394972,"ECG,,,,,,,,,,2188",0
1759848214.2405174,"ECG,,,,,,,,,,2379",0
1759848214.2414951,"ECG,,,,,,,,,,2762",0
1759848214.242494,"ECG,,,,,,,,,,2969",0
1759848214.242494,"ECG,,,,,,,,,,2959",0
1759848214.2434957,"ECG,,,,,,,,,,2696",0
1759848214.2454958,"ECG,,,,,,,,,,2264",0
1759848214.2474966,"ECG,,,,,,,,,,1865",0
1759848214.2574954,"ECG,,,,,,,,,,2109",0
1759848214.258497,"ECG,,,,,,,,,,2143",0
1759848214.2595015,"ECG,,,,,,,,,,2173",0
1759848214.2604976,"ECG,,,,,,,,,,2366",0
1759848214.2614975,"ECG,,,,,,,,,,2775",0
1759848214.2624972,"ECG,,,,,,,,,,3000",0
1759848214.2644932,"ECG,,,,,,,,,,2999",0
1759848214.2654965,"ECG,,,,,,,,,,2729",0
1759848214.2654965,"ECG,,,,,,,,,,2302",0
1759848214.268495,"ECG,,,,,,,,,,1896",0
1759848214.2824962,"ECG,,,,,,,,,,2136",0
1759848214.2834995,"ECG,,,,,,,,,,2168",0
1759848214.2844956,"ECG,,,,,,,,,,2190",0
1759848214.2854986,"ECG,,,,,,,,,,2381",0
1759848214.2864947,"ECG,,,,,,,,,,2778",0
1759848214.2874987,"ECG,,,,,,,,,,3000",0
1759848214.2884982,"ECG,,,,,,,,,,2999",0
1759848214.289496,"ECG,,,,,,,,,,2729",0
1759848214.289496,"ECG,,,,,,,,,,2296",0
1759848214.290495,"ECG,,,,,,,,,,1886",0
1759848214.3024993,"ECG,,,,,,,,,,2135",0
1759848214.303496,"ECG,,,,,,,,,,2168",0
1759848214.3044953,"ECG,,,,,,,,,,2189",0
1759848214.305496,"ECG,,,,,,,,,,2391",0
1759848214.306496,"ECG,,,,,,,,,,2781",0
1759848214.3074946,"ECG,,,,,,,,,,3006",0
1759848214.308495,"ECG,,,,,,,,,,3015",0
1759848214.309495,"ECG,,,,,,,,,,2751",0
1759848214.310496,"ECG,,,,,,,,,,2331",0
1759848214.311494,"ECG,,,,,,,,,,1931",0
1759848214.3334966,"ECG,,,,,,,,,,2200",0
1759848214.3344963,"ECG,,,,,,,,,,2232",0
1759848214.3354964,"ECG,,,,,,,,,,2255",0
1759848214.3365004,"ECG,,,,,,,,,,2448",0
1759848214.3374987,"ECG,,,,,,,,,,2858",0
1759848214.3384964,"ECG,,,,,,,,,,3083",0
1759848214.3394983,"ECG,,,,,,,,,,3084",0
1759848214.3404973,"ECG,,,,,,,,,,2813",0
1759848214.3414972,"ECG,,,,,,,,,,2391",0
1759848214.3414972,"ECG,,,,,,,,,,1980",0
1759848214.3464963,"ECG,,,,,,,,,,2185",0
1759848214.347498,"ECG,,,,,,,,,,2218",0
1759848214.3484974,"ECG,,,,,,,,,,2239",0
1759848214.3495004,"ECG,,,,,,,,,,2430",0
1759848214.3514967,"ECG,,,,,,,,,,2815",0
1759848214.3524952,"ECG,,,,,,,,,,3033",0
1759848214.3524952,"ECG,,,,,,,,,,3032",0
1759848214.3534954,"ECG,,,,,,,,,,2763",0
1759848214.3544955,"ECG,,,,,,,,,,2330",0
1759848214.3554952,"ECG,,,,,,,,,,1919",0
1759848214.3615036,"ECG,,,,,,,,,,2158",0
1759848214.3635013,"ECG,,,,,,,,,,2190",0
1759848214.3645005,"ECG,,,,,,,,,,2219",0
1759848214.3654962,"ECG,,,,,,,,,,2409",0
1759848214.3654962,"ECG,,,,,,,,,,2808",0
1759848214.3664978,"ECG,,,,,,,,,,3036",0
1759848214.3674972,"ECG,,,,,,,,,,3038",0
1759848214.368496,"ECG,,,,,,,,,,2781",0
1759848214.3694954,"ECG,,,,,,,,,,2351",0
1759848214.3704953,"ECG,,,,,,,,,,1946",0
1759848214.3784962,"ECG,,,,,,,,,,2157",0
1759848214.379496,"ECG,,,,,,,,,,2188",0
1759848214.380496,"ECG,,,,,,,,,,2218",0
1759848214.3814952,"ECG,,,,,,,,,,2408",0
1759848214.3814952,"ECG,,,,,,,,,,2797",0
1759848214.3824947,"ECG,,,,,,,,,,3016",0
1759848214.3834946,"ECG,,,,,,,,,,3006",0
1759848214.3844965,"ECG,,,,,,,,,,2734",0
1759848214.385495,"ECG,,,,,,,,,,2300",0
1759848214.3884964,"ECG,,,,,,,,,,1885",0
1759848214.3974972,"ECG,,,,,,,,,,2136",0
1759848214.398506,"ECG,,,,,,,,,,2169",0
1759848214.3995006,"ECG,,,,,,,,,,2190",0
1759848214.4004977,"ECG,,,,,,,,,,2392",0
1759848214.401499,"ECG,,,,,,,,,,2793",0
1759848214.402499,"ECG,,,,,,,,,,3022",0
1759848214.403501,"ECG,,,,,,,,,,3021",0
1759848214.4045014,"ECG,,,,,,,,,,2760",0
1759848214.4054961,"ECG,,,,,,,,,,2318",0
1759848214.4074955,"ECG,,,,,,,,,,1903",0
1759848214.4174948,"ECG,,,,,,,,,,2138",0
1759848214.4184966,"ECG,,,,,,,,,,2169",0
1759848214.4194973,"ECG,,,,,,,,,,2200",0
1759848214.420496,"ECG,,,,,,,,,,2392",0
1759848214.4214973,"ECG,,,,,,,,,,2797",0
1759848214.4224937,"ECG,,,,,,,,,,3023",0
1759848214.4234943,"ECG,,,,,,,,,,3039",0
1759848214.4234943,"ECG,,,,,,,,,,2781",0
1759848214.4254968,"ECG,,,,,,,,,,2347",0
1759848214.427499,"ECG,,,,,,,,,,1929",0
1759848214.4374943,"ECG,,,,,,,,,,2089",0
1759848214.4384964,"ECG,,,,,,,,,,2122",0
1759848214.439499,"ECG,,,,,,,,,,2141",0
1759848214.4404974,"ECG,,,,,,,,,,2335",0
1759848214.4414961,"ECG,,,,,,,,,,2733",0
1759848214.4424956,"ECG,,,,,,,,,,2969",0
1759848214.4434938,"ECG,,,,,,,,,,2984",0
1759848214.444497,"ECG,,,,,,,,,,2727",0
1759848214.445495,"ECG,,,,,,,,,,2298",0
1759848214.4484968,"ECG,,,,,,,,,,1888",0
1759848214.4584973,"ECG,,,,,,,,,,2091",0
1759848214.4584973,"ECG,,,,,,,,,,2122",0
1759848214.459498,"ECG,,,,,,,,,,2152",0
1759848214.4604964,"ECG,,,,,,,,,,2345",0
1759848214.4614944,"ECG,,,,,,,,,,2746",0
1759848214.462494,"ECG,,,,,,,,,,2985",0
1759848214.462494,"ECG,,,,,,,,,,3002",0
1759848214.4634962,"ECG,,,,,,,,,,2747",0
1759848214.4664946,"ECG,,,,,,,,,,2313",0
1759848214.4684992,"ECG,,,,,,,,,,1902",0
1759848214.4774966,"ECG,,,,,,,,,,2088",0
1759848214.478496,"ECG,,,,,,,,,,2120",0
1759848214.478496,"ECG,,,,,,,,,,2140",0
1759848214.479494,"ECG,,,,,,,,,,2333",0
1759848214.4804945,"ECG,,,,,,,,,,2733",0
1759848214.4804945,"ECG,,,,,,,,,,2968",0
1759848214.4824972,"ECG,,,,,,,,,,2973",0
1759848214.483493,"ECG,,,,,,,,,,2728",0
1759848214.4854925,"ECG,,,,,,,,,,2300",0
1759848214.4874926,"ECG,,,,,,,,,,1900",0
1759848214.4964964,"ECG,,,,,,,,,,2092",0
1759848214.497496,"ECG,,,,,,,,,,2126",0
1759848214.498496,"ECG,,,,,,,,,,2152",0
1759848214.4994955,"ECG,,,,,,,,,,2345",0
1759848214.5004957,"ECG,,,,,,,,,,2733",0
1759848214.5014958,"ECG,,,,,,,,,,2970",0
1759848214.502496,"ECG,,,,,,,,,,2984",0
1759848214.5044942,"ECG,,,,,,,,,,2730",0
1759848214.5054953,"ECG,,,,,,,,,,2300",0
1759848214.5074959,"ECG,,,,,,,,,,1884",0
1759848214.517496,"ECG,,,,,,,,,,2091",0
1759848214.5184984,"ECG,,,,,,,,,,2125",0
1759848214.5194948,"ECG,,,,,,,,,,2152",0
1759848214.5194948,"ECG,,,,,,,,,,2349",0
1759848214.5204935,"ECG,,,,,,,,,,2752",0
1759848214.5214934,"ECG,,,,,,,,,,2990",0
1759848214.5224953,"ECG,,,,,,,,,,3000",0
1759848214.5244942,"ECG,,,,,,,,,,2730",0
1759848214.5254931,"ECG,,,,,,,,,,2295",0
1759848214.5274937,"ECG,,,,,,,,,,1869",0
1759848214.537495,"ECG,,,,,,,,,,2039",0
1759848214.537495,"ECG,,,,,,,,,,2064",0
1759848214.5384955,"ECG,,,,,,,,,,2092",0
1759848214.5394921,"ECG,,,,,,,,,,2296",0
1759848214.5394921,"ECG,,,,,,,,,,2698",0
1759848214.540492,"ECG,,,,,,,,,,2942",0
1759848214.5414917,"ECG,,,,,,,,,,2968",0
1759848214.5444949,"ECG,,,,,,,,,,2719",0
1759848214.5454948,"ECG,,,,,,,,,,2298",0
1759848214.5474935,"ECG,,,,,,,,,,1895",0
1759848214.5564935,"ECG,,,,,,,,,,2044",0
1759848214.5574934,"ECG,,,,,,,,,,2077",0
1759848214.558494,"ECG,,,,,,,,,,2105",0
1759848214.5594935,"ECG,,,,,,,,,,2296",0
1759848214.5594935,"ECG,,,,,,,,,,2698",0
1759848214.5604935,"ECG,,,,,,,,,,2940",0
1759848214.5614939,"ECG,,,,,,,,,,2968",0
1759848214.5634935,"ECG,,,,,,,,,,2718",0
1759848214.5654979,"ECG,,,,,,,,,,2285",0
1759848214.5674937,"ECG,,,,,,,,,,1867",0
1759848214.5764937,"ECG,,,,,,,,,,2005",0
1759848214.5774963,"ECG,,,,,,,,,,2040",0
1759848214.5774963,"ECG,,,,,,,,,,2060",0
1759848214.5784936,"ECG,,,,,,,,,,2252",0
1759848214.579493,"ECG,,,,,,,,,,2654",0
1759848214.579493,"ECG,,,,,,,,,,2903",0
1759848214.5814943,"ECG,,,,,,,,,,2924",0
1759848214.583492,"ECG,,,,,,,,,,2682",0
1759848214.5854921,"ECG,,,,,,,,,,2254",0
1759848214.5874925,"ECG,,,,,,,,,,1838",0
1759848214.597493,"ECG,,,,,,,,,,1992",0
1759848214.597493,"ECG,,,,,,,,,,2023",0
1759848214.5984926,"ECG,,,,,,,,,,2044",0
1759848214.5994933,"ECG,,,,,,,,,,2248",0
1759848214.6004941,"ECG,,,,,,,,,,2653",0
1759848214.6014953,"ECG,,,,,,,,,,2909",0
1759848214.6024947,"ECG,,,,,,,,,,2937",0
1759848214.6034935,"ECG,,,,,,,,,,2686",0
1759848214.6054933,"ECG,,,,,,,,,,2256",0
1759848214.6074936,"ECG,,,,,,,,,,1839",0
1759848214.6164932,"ECG,,,,,,,,,,1978",0
1759848214.6174977,"ECG,,,,,,,,,,2009",0
1759848214.6174977,"ECG,,,,,,,,,,2030",0
1759848214.6184947,"ECG,,,,,,,,,,2234",0
1759848214.6194935,"ECG,,,,,,,,,,2637",0
1759848214.6194935,"ECG,,,,,,,,,,2887",0
1759848214.621494,"ECG,,,,,,,,,,2908",0
1759848214.6234934,"ECG,,,,,,,,,,2654",0
1759848214.625493,"ECG,,,,,,,,,,2232",0
1759848214.6274943,"ECG,,,,,,,,,,1805",0
1759848214.636495,"ECG,,,,,,,,,,1979",0
1759848214.636495,"ECG,,,,,,,,,,2010",0
1759848214.637501,"ECG,,,,,,,,,,2038",0
1759848214.6384914,"ECG,,,,,,,,,,2231",0
1759848214.6384914,"ECG,,,,,,,,,,2623",0
1759848214.639491,"ECG,,,,,,,,,,2871",0
1759848214.6414933,"ECG,,,,,,,,,,2890",0
1759848214.643495,"ECG,,,,,,,,,,2647",0
1759848214.6454914,"ECG,,,,,,,,,,2219",0
1759848214.6474912,"ECG,,,,,,,,,,1803",0
1759848214.6564925,"ECG,,,,,,,,,,1980",0
1759848214.6564925,"ECG,,,,,,,,,,2010",0
1759848214.6574962,"ECG,,,,,,,,,,2040",0
1759848214.6584947,"ECG,,,,,,,,,,2235",0
1759848214.6584947,"ECG,,,,,,,,,,2647",0
1759848214.6594934,"ECG,,,,,,,,,,2890",0
1759848214.6614916,"ECG,,,,,,,,,,2920",0
1759848214.6634912,"ECG,,,,,,,,,,2668",0
1759848214.665498,"ECG,,,,,,,,,,2237",0
1759848214.667493,"ECG,,,,,,,,,,1815",0
1759848214.6764958,"ECG,,,,,,,,,,1946",0
1759848214.6774933,"ECG,,,,,,,,,,1980",0
1759848214.6784937,"ECG,,,,,,,,,,2008",0
1759848214.6784937,"ECG,,,,,,,,,,2201",0
1759848214.6794937,"ECG,,,,,,,,,,2615",0
1759848214.6804938,"ECG,,,,,,,,,,2859",0
1759848214.6814945,"ECG,,,,,,,,,,2891",0
1759848214.6834962,"ECG,,,,,,,,,,2651",0
1759848214.6854923,"ECG,,,,,,,,,,2222",0
1759848214.6874914,"ECG,,,,,,,,,,1806",0
1759848214.6965005,"ECG,,,,,,,,,,1935",0
1759848214.697498,"ECG,,,,,,,,,,1976",0
1759848214.698495,"ECG,,,,,,,,,,1995",0
1759848214.698495,"ECG,,,,,,,,,,2190",0
1759848214.6994936,"ECG,,,,,,,,,,2605",0
1759848214.6994936,"ECG,,,,,,,,,,2860",0
1759848214.7014935,"ECG,,,,,,,,,,2894",0
1759848214.7044973,"ECG,,,,,,,,,,2666",0
1759848214.7054956,"ECG,,,,,,,,,,2238",0
1759848214.7074957,"ECG,,,,,,,,,,1822",0
1759848214.716495,"ECG,,,,,,,,,,1950",0
1759848214.7175043,"ECG,,,,,,,,,,1980",0
1759848214.7184985,"ECG,,,,,,,,,,2000",0
1759848214.7194984,"ECG,,,,,,,,,,2200",0
1759848214.7204957,"ECG,,,,,,,,,,2600",0
1759848214.7204957,"ECG,,,,,,,,,,2847",0
1759848214.7214954,"ECG,,,,,,,,,,2879",0
1759848214.7234926,"ECG,,,,,,,,,,2639",0
1759848214.7254949,"ECG,,,,,,,,,,2221",0
1759848214.727494,"ECG,,,,,,,,,,1807",0
1759848214.736498,"ECG,,,,,,,,,,1945",0
1759848214.7374964,"ECG,,,,,,,,,,1977",0
1759848214.7384973,"ECG,,,,,,,,,,1997",0
1759848214.7394953,"ECG,,,,,,,,,,2200",0
1759848214.7394953,"ECG,,,,,,,,,,2603",0
1759848214.740494,"ECG,,,,,,,,,,2858",0
1759848214.7414968,"ECG,,,,,,,,,,2893",0
1759848214.7434916,"ECG,,,,,,,,,,2655",0
1759848214.7454953,"ECG,,,,,,,,,,2234",0
1759848214.7474937,"ECG,,,,,,,,,,1816",0
1759848214.7574954,"ECG,,,,,,,,,,1948",0
1759848214.7574954,"ECG,,,,,,,,,,1980",0
1759848214.7584944,"ECG,,,,,,,,,,2008",0
1759848214.759495,"ECG,,,,,,,,,,2204",0
1759848214.759495,"ECG,,,,,,,,,,2616",0
1759848214.7604942,"ECG,,,,,,,,,,2872",0
1759848214.761493,"ECG,,,,,,,,,,2903",0
1759848214.763493,"ECG,,,,,,,,,,2666",0
1759848214.7654927,"ECG,,,,,,,,,,2248",0
1759848214.767495,"ECG,,,,,,,,,,1824",0
1759848214.7774956,"ECG,,,,,,,,,,1931",0
1759848214.7784965,"ECG,,,,,,,,,,1960",0
1759848214.7794948,"ECG,,,,,,,,,,1982",0
1759848214.7804952,"ECG,,,,,,,,,,2172",0
1759848214.7804952,"ECG,,,,,,,,,,2588",0
1759848214.7814949,"ECG,,,,,,,,,,2846",0
1759848214.7824962,"ECG,,,,,,,,,,2879",0
1759848214.7834954,"ECG,,,,,,,,,,2647",0
1759848214.7854939,"ECG,,,,,,,,,,2221",0
1759848214.7874937,"ECG,,,,,,,,,,1803",0
1759848214.7964933,"ECG,,,,,,,,,,1929",0
1759848214.797497,"ECG,,,,,,,,,,1959",0
1759848214.7984974,"ECG,,,,,,,,,,1980",0
1759848214.7994955,"ECG,,,,,,,,,,2175",0
1759848214.7994955,"ECG,,,,,,,,,,2600",0
1759848214.8004937,"ECG,,,,,,,,,,2857",0
1759848214.8014958,"ECG,,,,,,,,,,2895",0
1759848214.8034966,"ECG,,,,,,,,,,2666",0
1759848214.8054955,"ECG,,,,,,,,,,2249",0
1759848214.808495,"ECG,,,,,,,,,,1821",0
1759848214.817497,"ECG,,,,,,,,,,1931",0
1759848214.8184927,"ECG,,,,,,,,,,1963",0
1759848214.8184927,"ECG,,,,,,,,,,1991",0
1759848214.8194933,"ECG,,,,,,,,,,2183",0
1759848214.8194933,"ECG,,,,,,,,,,2590",0
1759848214.8204932,"ECG,,,,,,,,,,2846",0
1759848214.821494,"ECG,,,,,,,,,,2889",0
1759848214.823492,"ECG,,,,,,,,,,2655",0
1759848214.8254936,"ECG,,,,,,,,,,2239",0
1759848214.827492,"ECG,,,,,,,,,,1819",0
1759848214.8364959,"ECG,,,,,,,,,,1934",0
1759848214.8364959,"ECG,,,,,,,,,,1964",0
1759848214.837495,"ECG,,,,,,,,,,1994",0
1759848214.837495,"ECG,,,,,,,,,,2185",0
1759848214.8384943,"ECG,,,,,,,,,,2589",0
1759848214.8394933,"ECG,,,,,,,,,,2847",0
1759848214.8424964,"ECG,,,,,,,,,,2889",0
1759848214.8434954,"ECG,,,,,,,,,,2663",0
1759848214.8454943,"ECG,,,,,,,,,,2249",0
1759848214.848494,"ECG,,,,,,,,,,1833",0
1759848214.8584967,"ECG,,,,,,,,,,1935",0
1759848214.8584967,"ECG,,,,,,,,,,1965",0
1759848214.8594935,"ECG,,,,,,,,,,1996",0
1759848214.8594935,"ECG,,,,,,,,,,2189",0
1759848214.8604927,"ECG,,,,,,,,,,2601",0
1759848214.8604927,"ECG,,,,,,,,,,2860",0
1759848214.8614926,"ECG,,,,,,,,,,2894",0
1759848214.8644962,"ECG,,,,,,,,,,2667",0
1759848214.8714955,"ECG,,,,,,,,,,1514",0
1759848214.8794944,"ECG,,,,,,,,,,2364",0
1759848214.8804975,"ECG,,,,,,,,,,2396",0
1759848214.8804975,"ECG,,,,,,,,,,2415",0
1759848214.8814924,"ECG,,,,,,,,,,2442",0
1759848214.882493,"ECG,,,,,,,,,,2472",0
1759848214.8834937,"ECG,,,,,,,,,,2604",0
1759848214.8834937,"ECG,,,,,,,,,,2873",0
1759848214.8844943,"ECG,,,,,,,,,,2924",0
1759848214.885494,"ECG,,,,,,,,,,2701",0
1759848214.885494,"ECG,,,,,,,,,,2295",0
1759848214.8874917,"ECG,,,,,,,,,,1867",0
1759848214.8894951,"ECG,,,,,,,,,,1597",0
1759848214.897495,"ECG,,,,,,,,,,2221",0
1759848214.8985026,"ECG,,,,,,,,,,2255",0
1759848214.8994973,"ECG,,,,,,,,,,2285",0
1759848214.8994973,"ECG,,,,,,,,,,2634",0
1759848214.9004934,"ECG,,,,,,,,,,2904",0
1759848214.901492,"ECG,,,,,,,,,,2941",0
1759848214.9034925,"ECG,,,,,,,,,,2715",0
1759848214.9054935,"ECG,,,,,,,,,,2299",0
1759848214.907495,"ECG,,,,,,,,,,1871",0
1759848214.9094918,"ECG,,,,,,,,,,1610",0
1759848214.9174936,"ECG,,,,,,,,,,2216",0
1759848214.9174936,"ECG,,,,,,,,,,2248",0
1759848214.9185007,"ECG,,,,,,,,,,2271",0
1759848214.9185007,"ECG,,,,,,,,,,2617",0
1759848214.9194922,"ECG,,,,,,,,,,2875",0
1759848214.921494,"ECG,,,,,,,,,,2924",0
1759848214.9234967,"ECG,,,,,,,,,,2697",0
1759848214.9254956,"ECG,,,,,,,,,,2270",0
1759848214.927498,"ECG,,,,,,,,,,1847",0
1759848214.937496,"ECG,,,,,,,,,,2171",0
1759848214.9385002,"ECG,,,,,,,,,,2206",0
1759848214.9395056,"ECG,,,,,,,,,,2234",0
1759848214.9395056,"ECG,,,,,,,,,,2266",0
1759848214.9404938,"ECG,,,,,,,,,,2622",0
1759848214.9404938,"ECG,,,,,,,,,,2894",0
1759848214.9414947,"ECG,,,,,,,,,,2952",0
1759848214.943492,"ECG,,,,,,,,,,2730",0
1759848214.9454923,"ECG,,,,,,,,,,2313",0
1759848214.9474938,"ECG,,,,,,,,,,1883",0
1759848214.9494922,"ECG,,,,,,,,,,1611",0
1759848214.9574938,"ECG,,,,,,,,,,2232",0
1759848214.9574938,"ECG,,,,,,,,,,2265",0
1759848214.9584963,"ECG,,,,,,,,,,2296",0
1759848214.9594927,"ECG,,,,,,,,,,2651",0
1759848214.9594927,"ECG,,,,,,,,,,2922",0
1759848214.9614964,"ECG,,,,,,,,,,2972",0
1759848214.9634929,"ECG,,,,,,,,,,2744",0
1759848214.9654925,"ECG,,,,,,,,,,2328",0
1759848214.9674978,"ECG,,,,,,,,,,1900",0
1759848214.9774938,"ECG,,,,,,,,,,2220",0
1759848214.9774938,"ECG,,,,,,,,,,2253",0
1759848214.978497,"ECG,,,,,,,,,,2282",0
1759848214.9794931,"ECG,,,,,,,,,,2312",0
1759848214.9794931,"ECG,,,,,,,,,,2682",0
1759848214.980492,"ECG,,,,,,,,,,2968",0
1759848214.9814951,"ECG,,,,,,,,,,3021",0
1759848214.9834943,"ECG,,,,,,,,,,2796",0
1759848214.9854956,"ECG,,,,,,,,,,2379",0
1759848214.9874923,"ECG,,,,,,,,,,1934",0
1759848214.9894958,"ECG,,,,,,,,,,1632",0
1759848214.9974937,"ECG,,,,,,,,,,2216",0
1759848214.9984992,"ECG,,,,,,,,,,2250",0
1759848214.9984992,"ECG,,,,,,,,,,2279",0
1759848214.9994938,"ECG,,,,,,,,,,2637",0
1759848214.9994938,"ECG,,,,,,,,,,2911",0
1759848215.001492,"ECG,,,,,,,,,,2972",0
1759848215.0034945,"ECG,,,,,,,,,,2760",0
1759848215.0054922,"ECG,,,,,,,,,,2346",0
1759848215.0074918,"ECG,,,,,,,,,,1911",0
1759848215.0094948,"ECG,,,,,,,,,,1625",0
1759848215.0184968,"ECG,,,,,,,,,,2202",0
1759848215.0184968,"ECG,,,,,,,,,,2234",0
1759848215.0194979,"ECG,,,,,,,,,,2265",0
1759848215.0194979,"ECG,,,,,,,,,,2630",0
1759848215.0204954,"ECG,,,,,,,,,,2909",0
1759848215.0214944,"ECG,,,,,,,,,,2973",0
1759848215.0234954,"ECG,,,,,,,,,,2763",0
1759848215.0254936,"ECG,,,,,,,,,,2350",0
1759848215.0274923,"ECG,,,,,,,,,,1916",0
1759848215.029493,"ECG,,,,,,,,,,1627",0
1759848215.0374954,"ECG,,,,,,,,,,2200",0
1759848215.0384934,"ECG,,,,,,,,,,2233",0
1759848215.0384934,"ECG,,,,,,,,,,2254",0
1759848215.0394945,"ECG,,,,,,,,,,2623",0
1759848215.0394945,"ECG,,,,,,,,,,2911",0
1759848215.041492,"ECG,,,,,,,,,,2986",0
1759848215.0434942,"ECG,,,,,,,,,,2781",0
1759848215.0454922,"ECG,,,,,,,,,,2367",0
1759848215.047498,"ECG,,,,,,,,,,1943",0
1759848215.0494921,"ECG,,,,,,,,,,1642",0
1759848215.0574946,"ECG,,,,,,,,,,2200",0
1759848215.0584993,"ECG,,,,,,,,,,2234",0
1759848215.0584993,"ECG,,,,,,,,,,2264",0
1759848215.0594969,"ECG,,,,,,,,,,2620",0
1759848215.060492,"ECG,,,,,,,,,,2906",0
1759848215.061494,"ECG,,,,,,,,,,2984",0
1759848215.063492,"ECG,,,,,,,,,,2779",0
1759848215.065494,"ECG,,,,,,,,,,2377",0
1759848215.067492,"ECG,,,,,,,,,,1934",0
1759848215.0694942,"ECG,,,,,,,,,,1632",0
1759848215.077494,"ECG,,,,,,,,,,2201",0
1759848215.0784988,"ECG,,,,,,,,,,2234",0
1759848215.0794992,"ECG,,,,,,,,,,2264",0
1759848215.080493,"ECG,,,,,,,,,,2633",0
1759848215.080493,"ECG,,,,,,,,,,2924",0
1759848215.081492,"ECG,,,,,,,,,,3001",0
1759848215.0834947,"ECG,,,,,,,,,,2794",0
1759848215.0854955,"ECG,,,,,,,,,,2382",0
1759848215.0874918,"ECG,,,,,,,,,,1947",0
1759848215.0894926,"ECG,,,,,,,,,,1643",0
1759848215.0974934,"ECG,,,,,,,,,,2188",0
1759848215.0984967,"ECG,,,,,,,,,,2222",0
1759848215.0994954,"ECG,,,,,,,,,,2252",0
1759848215.0994954,"ECG,,,,,,,,,,2618",0
1759848215.1004975,"ECG,,,,,,,,,,2911",0
1759848215.1014938,"ECG,,,,,,,,,,2989",0
1759848215.1034918,"ECG,,,,,,,,,,2783",0
1759848215.106497,"ECG,,,,,,,,,,2377",0
1759848215.108496,"ECG,,,,,,,,,,1944",0
1759848215.1104982,"ECG,,,,,,,,,,1646",0
1759848215.1444964,"ECG,,,,,,,,,,2216",0
1759848215.1454954,"ECG,,,,,,,,,,2248",0
1759848215.1464965,"ECG,,,,,,,,,,2279",0
1759848215.1474957,"ECG,,,,,,,,,,2636",0
1759848215.148496,"ECG,,,,,,,,,,2926",0
1759848215.1494954,"ECG,,,,,,,,,,3006",0
1759848215.1504955,"ECG,,,,,,,,,,2799",0
1759848215.152496,"ECG,,,,,,,,,,2383",0
1759848215.1534963,"ECG,,,,,,,,,,1945",0
1759848215.154496,"ECG,,,,,,,,,,1643",0
1759848215.1804965,"ECG,,,,,,,,,,2222",0
1759848215.1814964,"ECG,,,,,,,,,,2264",0
1759848215.1824968,"ECG,,,,,,,,,,2284",0
1759848215.1834984,"ECG,,,,,,,,,,2651",0
1759848215.1844957,"ECG,,,,,,,,,,2942",0
1759848215.185496,"ECG,,,,,,,,,,3016",0
1759848215.1864972,"ECG,,,,,,,,,,2807",0
1759848215.187496,"ECG,,,,,,,,,,2393",0
1759848215.1884956,"ECG,,,,,,,,,,1952",0
1759848215.1944988,"ECG,,,,,,,,,,2176",0
1759848215.1944988,"ECG,,,,,,,,,,2217",0
1759848215.1954956,"ECG,,,,,,,,,,2239",0
1759848215.1964974,"ECG,,,,,,,,,,2268",0
1759848215.1974976,"ECG,,,,,,,,,,2634",0
1759848215.1984947,"ECG,,,,,,,,,,2927",0
1759848215.199494,"ECG,,,,,,,,,,3006",0
1759848215.201496,"ECG,,,,,,,,,,2808",0
1759848215.2024941,"ECG,,,,,,,,,,2395",0
1759848215.2044952,"ECG,,,,,,,,,,1951",0
1759848215.210499,"ECG,,,,,,,,,,2174",0
1759848215.212495,"ECG,,,,,,,,,,2217",0
1759848215.2134955,"ECG,,,,,,,,,,2238",0
1759848215.2144942,"ECG,,,,,,,,,,2268",0
1759848215.215495,"ECG,,,,,,,,,,2647",0
1759848215.2164974,"ECG,,,,,,,,,,2942",0
1759848215.2174952,"ECG,,,,,,,,,,3023",0
1759848215.218496,"ECG,,,,,,,,,,2826",0
1759848215.2194943,"ECG,,,,,,,,,,2412",0
1759848215.2204947,"ECG,,,,,,,,,,1965",0
1759848215.2214956,"ECG,,,,,,,,,,1658",0
1759848215.2304976,"ECG,,,,,,,,,,2202",0
1759848215.2324965,"ECG,,,,,,,,,,2238",0
1759848215.2334955,"ECG,,,,,,,,,,2267",0
1759848215.2354956,"ECG,,,,,,,,,,2635",0
1759848215.2364967,"ECG,,,,,,,,,,2938",0
1759848215.2394984,"ECG,,,,,,,,,,3015",0
1759848215.2404988,"ECG,,,,,,,,,,2814",0
1759848215.2424963,"ECG,,,,,,,,,,2408",0
1759848215.243497,"ECG,,,,,,,,,,1961",0
1759848215.2444987,"ECG,,,,,,,,,,1644",0
1759848215.2534986,"ECG,,,,,,,,,,2202",0
1759848215.2544973,"ECG,,,,,,,,,,2237",0
1759848215.255497,"ECG,,,,,,,,,,2267",0
1759848215.2564957,"ECG,,,,,,,,,,2638",0
1759848215.257498,"ECG,,,,,,,,,,2952",0
1759848215.2584958,"ECG,,,,,,,,,,3034",0
1759848215.2594986,"ECG,,,,,,,,,,2840",0
1759848215.2604973,"ECG,,,,,,,,,,2428",0
1759848215.2614963,"ECG,,,,,,,,,,1981",0
1759848215.2684991,"ECG,,,,,,,,,,2157",0
1759848215.2694967,"ECG,,,,,,,,,,2191",0
1759848215.2704957,"ECG,,,,,,,,,,2220",0
1759848215.2724967,"ECG,,,,,,,,,,2252",0
1759848215.2744966,"ECG,,,,,,,,,,2622",0
1759848215.2755039,"ECG,,,,,,,,,,2925",0
1759848215.276497,"ECG,,,,,,,,,,3005",0
1759848215.2774954,"ECG,,,,,,,,,,2810",0
1759848215.2794943,"ECG,,,,,,,,,,2397",0
1759848215.2804945,"ECG,,,,,,,,,,1950",0
1759848215.2814944,"ECG,,,,,,,,,,1647",0
1759848215.290497,"ECG,,,,,,,,,,2217",0
1759848215.2914944,"ECG,,,,,,,,,,2250",0
1759848215.2934968,"ECG,,,,,,,,,,2282",0
1759848215.2944965,"ECG,,,,,,,,,,2653",0
1759848215.2954962,"ECG,,,,,,,,,,2957",0
1759848215.2964957,"ECG,,,,,,,,,,3034",0
1759848215.2974954,"ECG,,,,,,,,,,2831",0
1759848215.2984958,"ECG,,,,,,,,,,2425",0
1759848215.2994967,"ECG,,,,,,,,,,1966",0
1759848215.3134942,"ECG,,,,,,,,,,2158",0
1759848215.3164973,"ECG,,,,,,,,,,2198",0
1759848215.3174953,"ECG,,,,,,,,,,2222",0
1759848215.3184958,"ECG,,,,,,,,,,2251",0
1759848215.321496,"ECG,,,,,,,,,,2634",0
1759848215.3224976,"ECG,,,,,,,,,,2940",0
1759848215.3254964,"ECG,,,,,,,,,,3033",0
1759848215.3264968,"ECG,,,,,,,,,,2842",0
1759848215.3274977,"ECG,,,,,,,,,,2430",0
1759848215.3294961,"ECG,,,,,,,,,,1981",0
1759848215.331497,"ECG,,,,,,,,,,1661",0
1759848215.341497,"ECG,,,,,,,,,,2184",0
1759848215.342497,"ECG,,,,,,,,,,2218",0
1759848215.343497,"ECG,,,,,,,,,,2247",0
1759848215.344495,"ECG,,,,,,,,,,2617",0
1759848215.3454983,"ECG,,,,,,,,,,2925",0
1759848215.3464942,"ECG,,,,,,,,,,3014",0
1759848215.3474944,"ECG,,,,,,,,,,2814",0
1759848215.3484945,"ECG,,,,,,,,,,2410",0
1759848215.3504956,"ECG,,,,,,,,,,1961",0
1759848215.3504956,"ECG,,,,,,,,,,1645",0
1759848215.3604972,"ECG,,,,,,,,,,2198",0
1759848215.3634968,"ECG,,,,,,,,,,2223",0
1759848215.3644981,"ECG,,,,,,,,,,2253",0
1759848215.3664992,"ECG,,,,,,,,,,2638",0
1759848215.367498,"ECG,,,,,,,,,,2950",0
1759848215.3684967,"ECG,,,,,,,,,,3035",0
1759848215.369496,"ECG,,,,,,,,,,2842",0
1759848215.3714967,"ECG,,,,,,,,,,2440",0
1759848215.3724954,"ECG,,,,,,,,,,1992",0
1759848215.3734958,"ECG,,,,,,,,,,1662",0
1759848215.381027,"ECG,,,,,,,,,,2192",0
1759848215.3820267,"ECG,,,,,,,,,,2232",0
1759848215.3830278,"ECG,,,,,,,,,,2255",0
1759848215.3850293,"ECG,,,,,,,,,,2633",0
1759848215.387027,"ECG,,,,,,,,,,2940",0
1759848215.3890264,"ECG,,,,,,,,,,3032",0
1759848215.390026,"ECG,,,,,,,,,,2840",0
1759848215.3930268,"ECG,,,,,,,,,,2427",0
1759848215.3950279,"ECG,,,,,,,,,,1977",0
1759848215.3990264,"ECG,,,,,,,,,,1659",0
1759848215.4100254,"ECG,,,,,,,,,,2186",0
1759848215.4120264,"ECG,,,,,,,,,,2222",0
1759848215.4130256,"ECG,,,,,,,,,,2250",0
1759848215.4150243,"ECG,,,,,,,,,,2632",0
1759848215.417025,"ECG,,,,,,,,,,2939",0
1759848215.4190266,"ECG,,,,,,,,,,3033",0
1759848215.4200263,"ECG,,,,,,,,,,2841",0
1759848215.4220262,"ECG,,,,,,,,,,2440",0
1759848215.423026,"ECG,,,,,,,,,,1993",0
1759848215.425026,"ECG,,,,,,,,,,1671",0
1759848215.4360297,"ECG,,,,,,,,,,2204",0
1759848215.4370277,"ECG,,,,,,,,,,2237",0
1759848215.4390256,"ECG,,,,,,,,,,2268",0
1759848215.4410257,"ECG,,,,,,,,,,2651",0
1759848215.442025,"ECG,,,,,,,,,,2959",0
1759848215.442025,"ECG,,,,,,,,,,3049",0
1759848215.4435563,"ECG,,,,,,,,,,2846",0
1759848215.4435563,"ECG,,,,,,,,,,2428",0
1759848215.4445424,"ECG,,,,,,,,,,1979",0
1759848215.4445424,"ECG,,,,,,,,,,1660",0
1759848215.4495447,"ECG,,,,,,,,,,2192",0
1759848215.450547,"ECG,,,,,,,,,,2232",0
1759848215.450547,"ECG,,,,,,,,,,2255",0
1759848215.4515429,"ECG,,,,,,,,,,2634",0
1759848215.4525433,"ECG,,,,,,,,,,2940",0
1759848215.4525433,"ECG,,,,,,,,,,3023",0
1759848215.4535437,"ECG,,,,,,,,,,2828",0
1759848215.4545443,"ECG,,,,,,,,,,2424",0
1759848215.4555433,"ECG,,,,,,,,,,1965",0
1759848215.4555433,"ECG,,,,,,,,,,1642",0
1759848215.4595437,"ECG,,,,,,,,,,2172",0
1759848215.4605484,"ECG,,,,,,,,,,2205",0
1759848215.4615464,"ECG,,,,,,,,,,2235",0
1759848215.4625463,"ECG,,,,,,,,,,2620",0
1759848215.463547,"ECG,,,,,,,,,,2935",0
1759848215.4645443,"ECG,,,,,,,,,,3022",0
1759848215.4645443,"ECG,,,,,,,,,,2840",0
1759848215.465542,"ECG,,,,,,,,,,2440",0
1759848215.4665415,"ECG,,,,,,,,,,1993",0
1759848215.4675431,"ECG,,,,,,,,,,1676",0
1759848215.470543,"ECG,,,,,,,,,,2187",0
1759848215.471545,"ECG,,,,,,,,,,2221",0
1759848215.471545,"ECG,,,,,,,,,,2253",0
1759848215.4725459,"ECG,,,,,,,,,,2621",0
1759848215.473542,"ECG,,,,,,,,,,2935",0
1759848215.473542,"ECG,,,,,,,,,,3016",0
1759848215.474544,"ECG,,,,,,,,,,2828",0
1759848215.4755423,"ECG,,,,,,,,,,2426",0
1759848215.4765437,"ECG,,,,,,,,,,1980",0
1759848215.4765437,"ECG,,,,,,,,,,1663",0
1759848215.480543,"ECG,,,,,,,,,,2200",0
1759848215.4815493,"ECG,,,,,,,,,,2234",0
1759848215.4815493,"ECG,,,,,,,,,,2264",0
1759848215.4825437,"ECG,,,,,,,,,,2636",0
1759848215.483542,"ECG,,,,,,,,,,2943",0
1759848215.483542,"ECG,,,,,,,,,,3033",0
1759848215.4845433,"ECG,,,,,,,,,,2842",0
1759848215.485541,"ECG,,,,,,,,,,2426",0
1759848215.485541,"ECG,,,,,,,,,,1968",0
1759848215.4865413,"ECG,,,,,,,,,,1655",0
1759848215.4915433,"ECG,,,,,,,,,,2190",0
1759848215.4915433,"ECG,,,,,,,,,,2232",0
1759848215.4925468,"ECG,,,,,,,,,,2255",0
1759848215.493542,"ECG,,,,,,,,,,2638",0
1759848215.493542,"ECG,,,,,,,,,,2956",0
1759848215.4945407,"ECG,,,,,,,,,,3050",0
1759848215.4955432,"ECG,,,,,,,,,,2861",0
1759848215.4955432,"ECG,,,,,,,,,,2458",0
1759848215.4965458,"ECG,,,,,,,,,,2009",0
1759848215.4975421,"ECG,,,,,,,,,,1678",0
1759848215.5005429,"ECG,,,,,,,,,,2186",0
1759848215.5005429,"ECG,,,,,,,,,,2219",0
1759848215.5015442,"ECG,,,,,,,,,,2249",0
1759848215.5025458,"ECG,,,,,,,,,,2620",0
1759848215.5025458,"ECG,,,,,,,,,,2924",0
1759848215.503545,"ECG,,,,,,,,,,3014",0
1759848215.504542,"ECG,,,,,,,,,,2829",0
1759848215.5055408,"ECG,,,,,,,,,,2427",0
1759848215.507543,"ECG,,,,,,,,,,1981",0
1759848215.5095437,"ECG,,,,,,,,,,1659",0
1759848215.5175445,"ECG,,,,,,,,,,2187",0
1759848215.518543,"ECG,,,,,,,,,,2221",0
1759848215.518543,"ECG,,,,,,,,,,2254",0
1759848215.519541,"ECG,,,,,,,,,,2639",0
1759848215.519541,"ECG,,,,,,,,,,2954",0
1759848215.5215409,"ECG,,,,,,,,,,3051",0
1759848215.523544,"ECG,,,,,,,,,,2863",0
1759848215.525541,"ECG,,,,,,,,,,2458",0
1759848215.527541,"ECG,,,,,,,,,,2007",0
1759848215.5305452,"ECG,,,,,,,,,,1675",0
1759848215.538545,"ECG,,,,,,,,,,2185",0
1759848215.5395472,"ECG,,,,,,,,,,2217",0
1759848215.5405452,"ECG,,,,,,,,,,2248",0
1759848215.5405452,"ECG,,,,,,,,,,2618",0
1759848215.5415459,"ECG,,,,,,,,,,2928",0
1759848215.542545,"ECG,,,,,,,,,,3023",0
1759848215.5445468,"ECG,,,,,,,,,,2845",0
1759848215.5465465,"ECG,,,,,,,,,,2445",0
1759848215.547552,"ECG,,,,,,,,,,2008",0
1759848215.5495462,"ECG,,,,,,,,,,1675",0
1759848215.5605485,"ECG,,,,,,,,,,2170",0
1759848215.5615487,"ECG,,,,,,,,,,2205",0
1759848215.5625467,"ECG,,,,,,,,,,2234",0
1759848215.5625467,"ECG,,,,,,,,,,2615",0
1759848215.5635464,"ECG,,,,,,,,,,2936",0
1759848215.5645494,"ECG,,,,,,,,,,3022",0
1759848215.5665467,"ECG,,,,,,,,,,2845",0
1759848215.5675452,"ECG,,,,,,,,,,2441",0
1759848215.568546,"ECG,,,,,,,,,,1993",0
1759848215.5705473,"ECG,,,,,,,,,,1661",0
1759848215.5775437,"ECG,,,,,,,,,,2157",0
1759848215.5785458,"ECG,,,,,,,,,,2189",0
1759848215.5795438,"ECG,,,,,,,,,,2219",0
1759848215.580544,"ECG,,,,,,,,,,2589",0
1759848215.580544,"ECG,,,,,,,,,,2904",0
