Timestamp,ESP32_Data,Manual
1759848549.0135386,"ECG,,,,,,,,,1708",0
1759848549.2235386,"IMU,-0.016,-0.105,0.862,1.252,1.322,2.852,89.813,-45.013,349.494",0
1759848549.2235386,"ECG,,,,,,,,,3182",0
1759848549.2245386,"ECG,,,,,,,,,3196",0
1759848549.2245386,"ECG,,,,,,,,,3210",0
1759848549.2255387,"ECG,,,,,,,,,3208",0
1759848549.2255387,"ECG,,,,,,,,,2845",0
1759848549.2265382,"ECG,,,,,,,,,2251",0
1759848549.2275372,"ECG,,,,,,,,,1689",0
1759848549.2278357,"ECG,,,,,,,,,1370",0
1759848549.2285383,"ECG,,,,,,,,,1352",0
1759848549.2285383,"ECG,,,,,,,,,1721",0
1759848549.2305377,"IMU,-0.020,-0.101,0.874,1.183,0.765,2.783,89.811,-45.012,349.494",0
1759848549.2315373,"ECG,,,,,,,,,3198",0
1759848549.2315373,"ECG,,,,,,,,,3222",0
1759848549.2325363,"ECG,,,,,,,,,3226",0
1759848549.2325363,"ECG,,,,,,,,,3225",0
1759848549.2335365,"ECG,,,,,,,,,2876",0
1759848549.2335365,"ECG,,,,,,,,,2295",0
1759848549.2345362,"ECG,,,,,,,,,1727",0
1759848549.2345362,"ECG,,,,,,,,,1406",0
1759848549.2355368,"ECG,,,,,,,,,1385",0
1759848549.2365358,"ECG,,,,,,,,,1740",0
1759848549.2375367,"IMU,-0.020,-0.101,0.874,1.670,0.696,3.130,89.811,-45.012,349.462",0
1759848549.2385361,"ECG,,,,,,,,,3213",0
1759848549.2385361,"ECG,,,,,,,,,3227",0
1759848549.2395365,"ECG,,,,,,,,,3239",0
1759848549.2395365,"ECG,,,,,,,,,3225",0
1759848549.240537,"ECG,,,,,,,,,2854",0
1759848549.2415366,"ECG,,,,,,,,,2250",0
1759848549.2415366,"ECG,,,,,,,,,1689",0
1759848549.2425363,"ECG,,,,,,,,,1370",0
1759848549.2425363,"ECG,,,,,,,,,1352",0
1759848549.2435374,"ECG,,,,,,,,,1708",0
1759848549.244537,"IMU,-0.016,-0.101,0.874,1.391,1.113,2.713,89.811,-45.013,348.869",0
1759848549.2455363,"ECG,,,,,,,,,3199",0
1759848549.2465377,"ECG,,,,,,,,,3213",0
1759848549.2465377,"ECG,,,,,,,,,3226",0
1759848549.2475383,"ECG,,,,,,,,,3225",0
1759848549.2475383,"ECG,,,,,,,,,2871",0
1759848549.2485394,"ECG,,,,,,,,,2283",0
1759848549.2485394,"ECG,,,,,,,,,1723",0
1759848549.2495375,"ECG,,,,,,,,,1402",0
1759848549.2495375,"ECG,,,,,,,,,1374",0
1759848549.2505372,"ECG,,,,,,,,,1736",0
1759848549.2525384,"IMU,-0.016,-0.105,0.870,1.600,1.322,3.061,89.812,-45.013,349.849",0
1759848549.2525384,"ECG,,,,,,,,,3224",0
1759848549.2535377,"ECG,,,,,,,,,3231",0
1759848549.2535377,"ECG,,,,,,,,,3245",0
1759848549.2545383,"ECG,,,,,,,,,3240",0
1759848549.2555385,"ECG,,,,,,,,,2878",0
1759848549.2555385,"ECG,,,,,,,,,2287",0
1759848549.2565386,"ECG,,,,,,,,,1724",0
1759848549.2565386,"ECG,,,,,,,,,1405",0
1759848549.2575378,"ECG,,,,,,,,,1384",0
1759848549.2575378,"ECG,,,,,,,,,1725",0
1759848549.2595375,"IMU,-0.016,-0.105,0.874,1.530,1.252,2.922,89.811,-45.013,349.057",0
1759848549.2605376,"ECG,,,,,,,,,3178",0
1759848549.2605376,"ECG,,,,,,,,,3193",0
1759848549.261537,"ECG,,,,,,,,,3198",0
1759848549.261537,"ECG,,,,,,,,,3196",0
1759848549.2625375,"ECG,,,,,,,,,2829",0
1759848549.2625375,"ECG,,,,,,,,,2249",0
1759848549.2635381,"ECG,,,,,,,,,1693",0
1759848549.2645364,"ECG,,,,,,,,,1388",0
1759848549.2645364,"ECG,,,,,,,,,1385",0
1759848549.266537,"IMU,-0.020,-0.101,0.870,1.461,2.226,3.200,89.812,-45.012,349.189",0
1759848549.266537,"ECG,,,,,,,,,3208",0
1759848549.2675374,"ECG,,,,,,,,,3214",0
1759848549.2675374,"ECG,,,,,,,,,3226",0
1759848549.268536,"ECG,,,,,,,,,3231",0
1759848549.269536,"ECG,,,,,,,,,3224",0
1759848549.269536,"ECG,,,,,,,,,2857",0
1759848549.270536,"ECG,,,,,,,,,2266",0
1759848549.270536,"ECG,,,,,,,,,1707",0
1759848549.2715364,"ECG,,,,,,,,,1400",0
1759848549.2715364,"ECG,,,,,,,,,1375",0
1759848549.272536,"ECG,,,,,,,,,1737",0
1759848549.2745388,"IMU,-0.016,-0.105,0.874,1.670,1.530,2.713,89.811,-45.013,349.486",0
1759848549.2745388,"ECG,,,,,,,,,3176",0
1759848549.2755365,"ECG,,,,,,,,,3191",0
1759848549.2755365,"ECG,,,,,,,,,3195",0
1759848549.2765362,"ECG,,,,,,,,,3180",0
1759848549.2765362,"ECG,,,,,,,,,2812",0
1759848549.2775369,"ECG,,,,,,,,,2221",0
1759848549.2775369,"ECG,,,,,,,,,1664",0
1759848549.2785366,"ECG,,,,,,,,,1356",0
1759848549.279536,"ECG,,,,,,,,,1343",0
1759848549.279536,"ECG,,,,,,,,,1721",0
1759848549.2815368,"IMU,-0.023,-0.105,0.870,1.252,1.391,2.991,89.812,-45.012,349.486",0
1759848549.2815368,"ECG,,,,,,,,,3193",0
1759848549.282537,"ECG,,,,,,,,,3209",0
1759848549.282537,"ECG,,,,,,,,,3212",0
1759848549.2835362,"ECG,,,,,,,,,3208",0
1759848549.2835362,"ECG,,,,,,,,,2847",0
1759848549.2845364,"ECG,,,,,,,,,2269",0
1759848549.285538,"ECG,,,,,,,,,1725",0
1759848549.285538,"ECG,,,,,,,,,1420",0
1759848549.286537,"ECG,,,,,,,,,1402",0
1759848549.2875364,"IMU,-0.016,-0.101,0.874,1.252,1.043,3.200,89.811,-45.013,349.486",0
1759848549.2885377,"ECG,,,,,,,,,3198",0
1759848549.2895362,"ECG,,,,,,,,,3211",0
1759848549.2895362,"ECG,,,,,,,,,3225",0
1759848549.2905362,"ECG,,,,,,,,,3231",0
1759848549.2905362,"ECG,,,,,,,,,3209",0
1759848549.2915363,"ECG,,,,,,,,,2825",0
1759848549.2915363,"ECG,,,,,,,,,2232",0
1759848549.292536,"ECG,,,,,,,,,1673",0
1759848549.292536,"ECG,,,,,,,,,1368",0
1759848549.2935362,"ECG,,,,,,,,,1358",0
1759848549.295537,"IMU,-0.016,-0.109,0.866,1.600,0.765,2.852,89.812,-45.014,349.486",0
1759848549.295537,"ECG,,,,,,,,,3183",0
1759848549.296536,"ECG,,,,,,,,,3198",0
1759848549.296536,"ECG,,,,,,,,,3210",0
1759848549.297537,"ECG,,,,,,,,,3224",0
1759848549.297537,"ECG,,,,,,,,,3214",0
1759848549.2985365,"ECG,,,,,,,,,2844",0
1759848549.299537,"ECG,,,,,,,,,2251",0
1759848549.299537,"ECG,,,,,,,,,1690",0
1759848549.3005376,"ECG,,,,,,,,,1374",0
1759848549.3005376,"ECG,,,,,,,,,1370",0
1759848549.3025372,"IMU,-0.023,-0.105,0.874,1.530,1.183,3.061,89.811,-45.012,349.486",0
1759848549.30354,"ECG,,,,,,,,,3209",0
1759848549.30354,"ECG,,,,,,,,,3224",0
1759848549.3045368,"ECG,,,,,,,,,3231",0
1759848549.3045368,"ECG,,,,,,,,,3243",0
1759848549.3055367,"ECG,,,,,,,,,3223",0
1759848549.3055367,"ECG,,,,,,,,,2847",0
1759848549.3065379,"ECG,,,,,,,,,2254",0
1759848549.3075366,"ECG,,,,,,,,,1693",0
1759848549.3075366,"ECG,,,,,,,,,1383",0
1759848549.3085365,"ECG,,,,,,,,,1368",0
1759848549.3085365,"ECG,,,,,,,,,1737",0
1759848549.3105369,"IMU,-0.016,-0.105,0.874,1.113,0.974,2.991,89.811,-45.013,349.365",0
1759848549.3105369,"ECG,,,,,,,,,3195",0
1759848549.3115363,"ECG,,,,,,,,,3208",0
1759848549.3115363,"ECG,,,,,,,,,3216",0
1759848549.3125365,"ECG,,,,,,,,,3197",0
1759848549.3135364,"ECG,,,,,,,,,2825",0
1759848549.3135364,"ECG,,,,,,,,,2223",0
1759848549.3145363,"ECG,,,,,,,,,1674",0
1759848549.3145363,"ECG,,,,,,,,,1374",0
1759848549.3155365,"ECG,,,,,,,,,1374",0
1759848549.3155365,"ECG,,,,,,,,,1751",0
1759848549.3175902,"IMU,-0.016,-0.105,0.877,1.391,1.043,2.991,89.810,-45.013,348.843",0
1759848549.3185394,"ECG,,,,,,,,,3197",0
1759848549.3185394,"ECG,,,,,,,,,3212",0
1759848549.3195393,"ECG,,,,,,,,,3224",0
1759848549.3195393,"ECG,,,,,,,,,3199",0
1759848549.32054,"ECG,,,,,,,,,2841",0
1759848549.3215392,"ECG,,,,,,,,,2249",0
1759848549.3215392,"ECG,,,,,,,,,1703",0
1759848549.3225389,"ECG,,,,,,,,,1402",0
1759848549.3225389,"ECG,,,,,,,,,1401",0
1759848549.3235412,"ECG,,,,,,,,,1784",0
1759848549.3255384,"IMU,-0.016,-0.101,0.874,1.252,0.974,2.991,89.811,-45.013,348.574",0
1759848549.3255384,"ECG,,,,,,,,,3208",0
1759848549.3265452,"ECG,,,,,,,,,3223",0
1759848549.3265452,"ECG,,,,,,,,,3228",0
1759848549.3275404,"ECG,,,,,,,,,3198",0
1759848549.3275404,"ECG,,,,,,,,,2824",0
1759848549.3285394,"ECG,,,,,,,,,2222",0
1759848549.3285394,"ECG,,,,,,,,,1663",0
1759848549.3295398,"ECG,,,,,,,,,1357",0
1759848549.33054,"ECG,,,,,,,,,1356",0
1759848549.33054,"ECG,,,,,,,,,1737",0
1759848549.3335397,"IMU,-0.016,-0.101,0.874,1.252,1.043,2.991,89.811,-45.013,348.957",0
1759848549.3335397,"ECG,,,,,,,,,3227",0
1759848549.3345385,"ECG,,,,,,,,,3242",0
1759848549.3355389,"ECG,,,,,,,,,3246",0
1759848549.3355389,"ECG,,,,,,,,,3227",0
1759848549.3365386,"ECG,,,,,,,,,2846",0
1759848549.3365386,"ECG,,,,,,,,,2252",0
1759848549.337539,"ECG,,,,,,,,,1704",0
1759848549.338538,"ECG,,,,,,,,,1392",0
1759848549.338538,"ECG,,,,,,,,,1401",0
1759848549.339537,"ECG,,,,,,,,,1774",0
1759848549.3405368,"IMU,-0.023,-0.101,0.866,1.043,1.113,3.061,89.812,-45.012,348.695",0
1759848549.341537,"ECG,,,,,,,,,3225",0
1759848549.341537,"ECG,,,,,,,,,3231",0
1759848549.3425367,"ECG,,,,,,,,,3242",0
1759848549.3435369,"ECG,,,,,,,,,3210",0
1759848549.3435369,"ECG,,,,,,,,,2826",0
1759848549.3455389,"ECG,,,,,,,,,2221",0
1759848549.347542,"ECG,,,,,,,,,1660",0
1759848549.348539,"ECG,,,,,,,,,1368",0
1759848549.3515391,"ECG,,,,,,,,,1372",0
1759848549.3595383,"IMU,-0.016,-0.101,0.874,1.322,1.043,2.852,89.811,-45.013,348.574",0
1759848549.3605404,"ECG,,,,,,,,,3181",0
1759848549.3605404,"ECG,,,,,,,,,3194",0
1759848549.3615391,"ECG,,,,,,,,,3208",0
1759848549.3615391,"ECG,,,,,,,,,3212",0
1759848549.362539,"ECG,,,,,,,,,3192",0
1759848549.3635402,"ECG,,,,,,,,,2810",0
1759848549.3655415,"ECG,,,,,,,,,2223",0
1759848549.3675394,"ECG,,,,,,,,,1679",0
1759848549.3695397,"ECG,,,,,,,,,1388",0
1759848549.3715386,"ECG,,,,,,,,,1400",0
1759848549.3735383,"ECG,,,,,,,,,1784",0
1759848549.3815389,"IMU,-0.012,-0.109,0.874,1.322,1.322,2.852,89.811,-45.014,348.574",0
1759848549.3825388,"ECG,,,,,,,,,3215",0
1759848549.3835385,"ECG,,,,,,,,,3228",0
1759848549.38454,"ECG,,,,,,,,,3240",0
1759848549.38554,"ECG,,,,,,,,,3210",0
1759848549.38554,"ECG,,,,,,,,,2831",0
1759848549.3865392,"ECG,,,,,,,,,2248",0
1759848549.3865392,"ECG,,,,,,,,,1704",0
1759848549.3895392,"ECG,,,,,,,,,1405",0
1759848549.3915389,"ECG,,,,,,,,,1403",0
1759848549.3935392,"ECG,,,,,,,,,1771",0
1759848549.4005415,"IMU,-0.016,-0.101,0.870,1.391,1.322,3.130,89.812,-45.013,348.574",0
1759848549.4015412,"ECG,,,,,,,,,3184",0
1759848549.4015412,"ECG,,,,,,,,,3198",0
1759848549.4025397,"ECG,,,,,,,,,3210",0
1759848549.4035432,"ECG,,,,,,,,,3177",0
1759848549.4035432,"ECG,,,,,,,,,2796",0
1759848549.4055386,"ECG,,,,,,,,,2205",0
1759848549.4075406,"ECG,,,,,,,,,1663",0
1759848549.409538,"ECG,,,,,,,,,1386",0
1759848549.4115386,"ECG,,,,,,,,,1401",0
1759848549.413538,"ECG,,,,,,,,,1784",0
1759848549.4195397,"IMU,-0.016,-0.105,0.870,1.322,1.183,2.991,89.812,-45.013,348.574",0
1759848549.4205382,"ECG,,,,,,,,,3241",0
1759848549.4205382,"ECG,,,,,,,,,3256",0
1759848549.421539,"ECG,,,,,,,,,3261",0
1759848549.4225385,"ECG,,,,,,,,,3225",0
1759848549.4225385,"ECG,,,,,,,,,2839",0
1759848549.4255383,"ECG,,,,,,,,,2249",0
1759848549.4275398,"ECG,,,,,,,,,1693",0
1759848549.4295385,"ECG,,,,,,,,,1402",0
1759848549.4315393,"ECG,,,,,,,,,1405",0
1759848549.4335449,"ECG,,,,,,,,,1787",0
1759848549.4395382,"IMU,-0.020,-0.105,0.881,1.461,1.113,2.991,89.809,-45.013,348.574",0
1759848549.4405386,"ECG,,,,,,,,,3240",0
1759848549.441542,"ECG,,,,,,,,,3247",0
1759848549.441542,"ECG,,,,,,,,,3259",0
1759848549.4425411,"ECG,,,,,,,,,3213",0
1759848549.4425411,"ECG,,,,,,,,,2813",0
1759848549.4455414,"ECG,,,,,,,,,2200",0
1759848549.4475389,"ECG,,,,,,,,,1628",0
1759848549.4495392,"ECG,,,,,,,,,1326",0
1759848549.451539,"ECG,,,,,,,,,1340",0
1759848549.4535394,"ECG,,,,,,,,,1737",0
1759848549.4595385,"IMU,-0.016,-0.105,0.870,1.252,0.974,3.061,89.810,-45.014,349.069",0
1759848549.4605381,"ECG,,,,,,,,,3239",0
1759848549.4605381,"ECG,,,,,,,,,3246",0
1759848549.4615386,"ECG,,,,,,,,,3258",0
1759848549.4615386,"ECG,,,,,,,,,3226",0
1759848549.462538,"ECG,,,,,,,,,2838",0
1759848549.464538,"ECG,,,,,,,,,2222",0
1759848549.4665384,"ECG,,,,,,,,,1663",0
1759848549.469538,"ECG,,,,,,,,,1372",0
1759848549.471538,"ECG,,,,,,,,,1388",0
1759848549.4735422,"ECG,,,,,,,,,1774",0
1759848549.4795413,"IMU,-0.020,-0.105,0.870,1.670,1.252,3.200,89.811,-45.013,348.676",0
1759848549.480539,"ECG,,,,,,,,,3257",0
1759848549.480539,"ECG,,,,,,,,,3272",0
1759848549.4815388,"ECG,,,,,,,,,3277",0
1759848549.4825392,"ECG,,,,,,,,,3241",0
1759848549.4835455,"ECG,,,,,,,,,2842",0
1759848549.485539,"ECG,,,,,,,,,2232",0
1759848549.4875414,"ECG,,,,,,,,,1662",0
1759848549.48954,"ECG,,,,,,,,,1358",0
1759848549.4915397,"ECG,,,,,,,,,1369",0
1759848549.492539,"ECG,,,,,,,,,1743",0
1759848549.499538,"IMU,-0.016,-0.105,0.877,1.322,0.904,3.061,89.811,-45.013,348.829",0
1759848549.500538,"ECG,,,,,,,,,3215",0
1759848549.500538,"ECG,,,,,,,,,3228",0
1759848549.5015383,"ECG,,,,,,,,,3231",0
1759848549.5015383,"ECG,,,,,,,,,3193",0
1759848549.5025387,"ECG,,,,,,,,,2796",0
1759848549.5055397,"ECG,,,,,,,,,2185",0
1759848549.5065384,"ECG,,,,,,,,,1630",0
1759848549.5085385,"ECG,,,,,,,,,1352",0
1759848549.510538,"ECG,,,,,,,,,1373",0
1759848549.5125384,"ECG,,,,,,,,,1782",0
1759848549.5195389,"IMU,-0.020,-0.101,0.881,1.322,0.904,2.991,89.811,-45.013,349.470",0
1759848549.5205386,"ECG,,,,,,,,,3260",0
1759848549.5205386,"ECG,,,,,,,,,3275",0
1759848549.5215383,"ECG,,,,,,,,,3278",0
1759848549.5215383,"ECG,,,,,,,,,3242",0
1759848549.5225382,"ECG,,,,,,,,,2843",0
1759848549.5245385,"ECG,,,,,,,,,2233",0
1759848549.5265381,"ECG,,,,,,,,,1671",0
1759848549.5285382,"ECG,,,,,,,,,1369",0
1759848549.531538,"ECG,,,,,,,,,1385",0
1759848549.5325387,"ECG,,,,,,,,,1784",0
1759848549.539538,"IMU,-0.023,-0.101,0.874,1.252,1.043,2.991,89.811,-45.013,349.112",0
1759848549.540538,"ECG,,,,,,,,,3225",0
1759848549.540538,"ECG,,,,,,,,,3230",0
1759848549.5415385,"ECG,,,,,,,,,3242",0
1759848549.5415385,"ECG,,,,,,,,,3191",0
1759848549.5425384,"ECG,,,,,,,,,2780",0
1759848549.5445378,"ECG,,,,,,,,,2159",0
1759848549.5465379,"ECG,,,,,,,,,1597",0
1759848549.5485382,"ECG,,,,,,,,,1306",0
1759848549.5515378,"ECG,,,,,,,,,1325",0
1759848549.5525384,"ECG,,,,,,,,,1741",0
1759848549.559538,"IMU,-0.016,-0.105,0.870,1.322,1.113,2.783,89.810,-45.012,349.112",0
1759848549.560538,"ECG,,,,,,,,,3247",0
1759848549.560538,"ECG,,,,,,,,,3261",0
1759848549.5615382,"ECG,,,,,,,,,3274",0
1759848549.5615382,"ECG,,,,,,,,,3228",0
1759848549.5630894,"ECG,,,,,,,,,2824",0
1759848549.5650992,"ECG,,,,,,,,,2202",0
1759848549.5670993,"ECG,,,,,,,,,1640",0
1759848549.5690057,"ECG,,,,,,,,,1343",0
1759848549.5705514,"ECG,,,,,,,,,1371",0
1759848549.5725513,"ECG,,,,,,,,,1786",0
1759848549.5795505,"IMU,-0.016,-0.101,0.877,1.391,0.974,2.922,89.811,-45.012,349.112",0
1759848549.5805988,"ECG,,,,,,,,,3262",0
1759848549.5815544,"ECG,,,,,,,,,3278",0
1759848549.5825534,"ECG,,,,,,,,,3288",0
1759848549.5835526,"ECG,,,,,,,,,3228",0
1759848549.5845544,"ECG,,,,,,,,,2808",0
1759848549.5845544,"ECG,,,,,,,,,2172",0
1759848549.587553,"ECG,,,,,,,,,1609",0
1759848549.5895538,"ECG,,,,,,,,,1304",0
1759848549.5915527,"ECG,,,,,,,,,1321",0
1759848549.592553,"ECG,,,,,,,,,1736",0
1759848549.5995533,"IMU,-0.020,-0.101,0.874,1.461,1.043,2.643,89.810,-45.012,349.112",0
1759848549.600551,"ECG,,,,,,,,,3224",0
1759848549.600551,"ECG,,,,,,,,,3232",0
1759848549.6015518,"ECG,,,,,,,,,3242",0
1759848549.6015518,"ECG,,,,,,,,,3198",0
1759848549.6025524,"ECG,,,,,,,,,2795",0
1759848549.605551,"ECG,,,,,,,,,2187",0
1759848549.6075523,"ECG,,,,,,,,,1626",0
1759848549.6095526,"ECG,,,,,,,,,1328",0
1759848549.6115525,"ECG,,,,,,,,,1352",0
1759848549.613553,"ECG,,,,,,,,,1756",0
1759848549.619551,"IMU,-0.012,-0.105,0.870,1.739,1.183,3.130,89.812,-45.012,349.112",0
1759848549.6205509,"ECG,,,,,,,,,3272",0
1759848549.6205509,"ECG,,,,,,,,,3279",0
1759848549.6215513,"ECG,,,,,,,,,3292",0
1759848549.6225512,"ECG,,,,,,,,,3256",0
1759848549.6225512,"ECG,,,,,,,,,2845",0
1759848549.6255558,"ECG,,,,,,,,,2231",0
1759848549.6275525,"ECG,,,,,,,,,1657",0
1759848549.629552,"ECG,,,,,,,,,1353",0
1759848549.6315508,"ECG,,,,,,,,,1370",0
1759848549.6335504,"ECG,,,,,,,,,1771",0
1759848549.639552,"IMU,-0.020,-0.109,0.874,1.600,1.043,2.783,89.811,-45.012,349.090",0
1759848549.6405525,"ECG,,,,,,,,,3212",0
1759848549.6415493,"ECG,,,,,,,,,3224",0
1759848549.6415493,"ECG,,,,,,,,,3229",0
1759848549.6425524,"ECG,,,,,,,,,3177",0
1759848549.643552,"ECG,,,,,,,,,2761",0
1759848549.645551,"ECG,,,,,,,,,2126",0
1759848549.6475508,"ECG,,,,,,,,,1563",0
1759848549.6495526,"ECG,,,,,,,,,1289",0
1759848549.655553,"ECG,,,,,,,,,2333",0
1759848549.6615505,"IMU,-0.020,-0.101,0.874,1.252,1.322,3.061,89.811,-45.012,349.365",0
1759848549.6615505,"ECG,,,,,,,,,3287",0
1759848549.6625514,"ECG,,,,,,,,,3262",0
1759848549.663551,"ECG,,,,,,,,,3247",0
1759848549.663551,"ECG,,,,,,,,,3227",0
1759848549.6645525,"ECG,,,,,,,,,3212",0
1759848549.6645525,"ECG,,,,,,,,,2829",0
1759848549.6655517,"ECG,,,,,,,,,2201",0
1759848549.6675508,"ECG,,,,,,,,,1628",0
1759848549.6685517,"ECG,,,,,,,,,1339",0
1759848549.671552,"ECG,,,,,,,,,1373",0
1759848549.6735516,"ECG,,,,,,,,,1789",0
1759848549.6805525,"IMU,-0.020,-0.105,0.870,1.391,1.183,2.991,89.812,-45.013,348.896",0
1759848549.6815498,"ECG,,,,,,,,,3308",0
1759848549.6815498,"ECG,,,,,,,,,3306",0
1759848549.6825507,"ECG,,,,,,,,,3305",0
1759848549.6825507,"ECG,,,,,,,,,3224",0
1759848549.6835496,"ECG,,,,,,,,,2790",0
1759848549.6855524,"ECG,,,,,,,,,2143",0
1759848549.6875508,"ECG,,,,,,,,,1575",0
1759848549.689551,"ECG,,,,,,,,,1277",0
1759848549.6915538,"ECG,,,,,,,,,1309",0
1759848549.693552,"ECG,,,,,,,,,1725",0
1759848549.7005513,"IMU,-0.012,-0.105,0.870,1.600,1.252,2.922,89.812,-45.014,349.048",0
1759848549.7015512,"ECG,,,,,,,,,3288",0
1759848549.7015512,"ECG,,,,,,,,,3279",0
1759848549.702551,"ECG,,,,,,,,,3288",0
1759848549.702551,"ECG,,,,,,,,,3213",0
1759848549.703551,"ECG,,,,,,,,,2799",0
1759848549.705555,"ECG,,,,,,,,,2186",0
1759848549.7075522,"ECG,,,,,,,,,1625",0
1759848549.7095568,"ECG,,,,,,,,,1339",0
1759848549.7115567,"ECG,,,,,,,,,1374",0
1759848549.7135525,"ECG,,,,,,,,,1806",0
1759848549.7215552,"IMU,-0.020,-0.105,0.874,1.391,1.530,3.061,89.811,-45.013,349.254",0
1759848549.7215552,"ECG,,,,,,,,,3356",0
1759848549.7225535,"ECG,,,,,,,,,3353",0
1759848549.7225535,"ECG,,,,,,,,,3353",0
1759848549.723551,"ECG,,,,,,,,,3275",0
1759848549.724553,"ECG,,,,,,,,,2847",0
1759848549.7255518,"ECG,,,,,,,,,2219",0
1759848549.727554,"ECG,,,,,,,,,1632",0
1759848549.7295516,"ECG,,,,,,,,,1326",0
1759848549.731551,"ECG,,,,,,,,,1335",0
1759848549.733553,"ECG,,,,,,,,,1726",0
1759848549.7405527,"IMU,-0.023,-0.097,0.874,1.600,1.391,2.643,89.811,-45.011,349.081",0
1759848549.7415514,"ECG,,,,,,,,,3256",0
1759848549.7415514,"ECG,,,,,,,,,3258",0
1759848549.7425513,"ECG,,,,,,,,,3257",0
1759848549.7425513,"ECG,,,,,,,,,3181",0
1759848549.743551,"ECG,,,,,,,,,2776",0
1759848549.7455506,"ECG,,,,,,,,,2154",0
1759848549.747552,"ECG,,,,,,,,,1596",0
1759848549.7495508,"ECG,,,,,,,,,1322",0
1759848549.751552,"ECG,,,,,,,,,1359",0
1759848549.7535517,"ECG,,,,,,,,,1784",0
1759848549.7605512,"IMU,-0.012,-0.105,0.874,1.530,2.087,3.200,89.811,-45.014,349.081",0
1759848549.7615514,"ECG,,,,,,,,,3322",0
1759848549.7615514,"ECG,,,,,,,,,3322",0
1759848549.7625513,"ECG,,,,,,,,,3312",0
1759848549.7625513,"ECG,,,,,,,,,3243",0
1759848549.763551,"ECG,,,,,,,,,2824",0
1759848549.7655509,"ECG,,,,,,,,,2199",0
1759848549.767551,"ECG,,,,,,,,,1641",0
1759848549.7695508,"ECG,,,,,,,,,1352",0
1759848549.771551,"ECG,,,,,,,,,1400",0
1759848549.7735505,"ECG,,,,,,,,,1816",0
1759848549.7806141,"IMU,-0.023,-0.101,0.870,1.809,1.809,3.130,89.812,-45.012,349.081",0
1759848549.7815523,"ECG,,,,,,,,,3291",0
1759848549.7815523,"ECG,,,,,,,,,3289",0
1759848549.7825518,"ECG,,,,,,,,,3288",0
1759848549.783553,"ECG,,,,,,,,,3195",0
1759848549.783553,"ECG,,,,,,,,,2750",0
1759848549.7855508,"ECG,,,,,,,,,2106",0
1759848549.7875507,"ECG,,,,,,,,,1532",0
1759848549.7895503,"ECG,,,,,,,,,1257",0
1759848549.7915506,"ECG,,,,,,,,,1309",0
1759848549.7935505,"ECG,,,,,,,,,1741",0
1759848549.801131,"IMU,-0.020,-0.101,0.866,1.530,1.670,3.130,89.812,-45.012,349.081",0
1759848549.801131,"ECG,,,,,,,,,3309",0
1759848549.8021307,"ECG,,,,,,,,,3307",0
1759848549.8021307,"ECG,,,,,,,,,3306",0
1759848549.8031292,"ECG,,,,,,,,,3228",0
1759848549.8031292,"ECG,,,,,,,,,2808",0
1759848549.8051295,"ECG,,,,,,,,,2172",0
1759848549.807131,"ECG,,,,,,,,,1599",0
1759848549.809131,"ECG,,,,,,,,,1311",0
1759848549.8111348,"ECG,,,,,,,,,1358",0
1759848549.8131309,"ECG,,,,,,,,,1786",0
1759848549.821128,"IMU,-0.020,-0.101,0.874,1.461,1.391,2.852,89.811,-45.012,349.081",0
1759848549.821128,"ECG,,,,,,,,,3339",0
1759848549.8221278,"ECG,,,,,,,,,3339",0
1759848549.8221278,"ECG,,,,,,,,,3337",0
1759848549.823129,"ECG,,,,,,,,,3260",0
1759848549.823129,"ECG,,,,,,,,,2841",0
1759848549.825128,"ECG,,,,,,,,,2204",0
1759848549.8271272,"ECG,,,,,,,,,1622",0
1759848549.8291287,"ECG,,,,,,,,,1305",0
1759848549.8311286,"ECG,,,,,,,,,1311",0
1759848549.8331287,"ECG,,,,,,,,,1710",0
1759848549.841128,"IMU,-0.020,-0.101,0.874,1.739,1.252,2.922,89.811,-45.012,348.882",0
1759848549.842129,"ECG,,,,,,,,,3255",0
1759848549.842129,"ECG,,,,,,,,,3256",0
1759848549.8431287,"ECG,,,,,,,,,3254",0
1759848549.8431287,"ECG,,,,,,,,,3176",0
1759848549.8441286,"ECG,,,,,,,,,2763",0
1759848549.8451295,"ECG,,,,,,,,,2140",0
1759848549.8471284,"ECG,,,,,,,,,1582",0
1759848549.849128,"ECG,,,,,,,,,1305",0
1759848549.8515022,"ECG,,,,,,,,,1355",0
1759848549.8535,"ECG,,,,,,,,,1773",0
1759848549.8604999,"IMU,-0.016,-0.109,0.874,1.322,1.670,2.852,89.811,-45.014,348.556",0
1759848549.861499,"ECG,,,,,,,,,3353",0
1759848549.861499,"ECG,,,,,,,,,3351",0
1759848549.8624988,"ECG,,,,,,,,,3342",0
1759848549.8624988,"ECG,,,,,,,,,3273",0
1759848549.8634994,"ECG,,,,,,,,,2842",0
1759848549.8655007,"ECG,,,,,,,,,2215",0
1759848549.8675206,"ECG,,,,,,,,,1644",0
1759848549.8695037,"ECG,,,,,,,,,1353",0
1759848549.8708878,"ECG,,,,,,,,,1400",0
1759848549.8731291,"ECG,,,,,,,,,1807",0
1759848549.8801403,"IMU,-0.023,-0.105,0.870,1.530,0.626,2.991,89.812,-45.012,349.828",0
1759848549.8811395,"ECG,,,,,,,,,3263",0
1759848549.8821402,"ECG,,,,,,,,,3262",0
1759848549.8821402,"ECG,,,,,,,,,3259",0
1759848549.8831391,"ECG,,,,,,,,,3175",0
1759848549.8831391,"ECG,,,,,,,,,2736",0
1759848549.8851392,"ECG,,,,,,,,,2108",0
1759848549.8871415,"ECG,,,,,,,,,1550",0
1759848549.8891397,"ECG,,,,,,,,,1275",0
1759848549.89114,"ECG,,,,,,,,,1336",0
1759848549.8931317,"ECG,,,,,,,,,1784",0
1759848549.900159,"IMU,-0.023,-0.101,0.866,1.252,1.948,3.130,89.812,-45.012,348.299",0
1759848549.9011586,"ECG,,,,,,,,,3322",0
1759848549.9021585,"ECG,,,,,,,,,3321",0
1759848549.9021585,"ECG,,,,,,,,,3310",0
1759848549.9031584,"ECG,,,,,,,,,3225",0
1759848549.9031584,"ECG,,,,,,,,,2796",0
1759848549.905158,"ECG,,,,,,,,,2170",0
1759848549.9071589,"ECG,,,,,,,,,1611",0
1759848549.9091585,"ECG,,,,,,,,,1327",0
1759848549.9111593,"ECG,,,,,,,,,1389",0
1759848549.9131587,"ECG,,,,,,,,,1821",0
1759848549.920178,"IMU,-0.016,-0.105,0.870,1.600,1.322,2.922,89.812,-45.013,348.419",0
1759848549.9214003,"ECG,,,,,,,,,3354",0
1759848549.9221787,"ECG,,,,,,,,,3352",0
1759848549.9231803,"ECG,,,,,,,,,3343",0
1759848549.9241798,"ECG,,,,,,,,,3259",0
1759848549.9241798,"ECG,,,,,,,,,2812",0
1759848549.9251778,"ECG,,,,,,,,,2169",0
1759848549.9271772,"ECG,,,,,,,,,1591",0
1759848549.9291837,"ECG,,,,,,,,,1279",0
1759848549.9311814,"ECG,,,,,,,,,1311",0
1759848549.9331305,"ECG,,,,,,,,,1738",0
1759848549.940219,"IMU,-0.020,-0.109,0.877,1.530,1.113,2.991,89.810,-45.013,348.419",0
1759848549.941219,"ECG,,,,,,,,,3277",0
1759848549.941219,"ECG,,,,,,,,,3274",0
1759848549.9422183,"ECG,,,,,,,,,3274",0
1759848549.9432187,"ECG,,,,,,,,,3195",0
1759848549.9432187,"ECG,,,,,,,,,2778",0
1759848549.9452183,"ECG,,,,,,,,,2156",0
1759848549.9472184,"ECG,,,,,,,,,1606",0
1759848549.9492183,"ECG,,,,,,,,,1325",0
1759848549.9512186,"ECG,,,,,,,,,1370",0
1759848549.9532208,"ECG,,,,,,,,,1803",0
1759848549.9602194,"IMU,-0.020,-0.105,0.874,1.600,0.904,3.061,89.811,-45.013,348.419",0
1759848549.9612188,"ECG,,,,,,,,,3370",0
1759848549.9612188,"ECG,,,,,,,,,3367",0
1759848549.9622197,"ECG,,,,,,,,,3357",0
1759848549.9622197,"ECG,,,,,,,,,3276",0
1759848549.963219,"ECG,,,,,,,,,2843",0
1759848549.9652183,"ECG,,,,,,,,,2205",0
1759848549.967314,"ECG,,,,,,,,,1641",0
1759848549.9692197,"ECG,,,,,,,,,1342",0
1759848549.971141,"ECG,,,,,,,,,1372",0
1759848549.9731507,"ECG,,,,,,,,,1785",0
1759848549.9801688,"IMU,-0.023,-0.101,0.874,1.600,1.391,3.130,89.811,-45.012,348.419",0
1759848549.981169,"ECG,,,,,,,,,3273",0
1759848549.9821692,"ECG,,,,,,,,,3271",0
1759848549.9821692,"ECG,,,,,,,,,3260",0
1759848549.9831693,"ECG,,,,,,,,,3168",0
1759848549.9831693,"ECG,,,,,,,,,2744",0
1759848549.9851675,"ECG,,,,,,,,,2106",0
1759848549.9871678,"ECG,,,,,,,,,1534",0
1759848549.989168,"ECG,,,,,,,,,1263",0
1759848549.9911437,"ECG,,,,,,,,,1334",0
1759848549.9931538,"ECG,,,,,,,,,1786",0
1759848550.0005276,"IMU,-0.020,-0.101,0.874,1.600,1.600,3.130,89.811,-45.012,348.419",0
1759848550.0015273,"ECG,,,,,,,,,3322",0
1759848550.0015273,"ECG,,,,,,,,,3320",0
1759848550.002527,"ECG,,,,,,,,,3311",0
1759848550.002527,"ECG,,,,,,,,,3226",0
1759848550.003529,"ECG,,,,,,,,,2793",0
1759848550.0055277,"ECG,,,,,,,,,2159",0
1759848550.0075276,"ECG,,,,,,,,,1608",0
1759848550.0095274,"ECG,,,,,,,,,1328",0
1759848550.0115278,"ECG,,,,,,,,,1388",0
1759848550.0135276,"ECG,,,,,,,,,1822",0
1759848550.0206244,"IMU,-0.020,-0.105,0.877,1.739,1.043,3.061,89.810,-45.013,348.488",0
1759848550.0216236,"ECG,,,,,,,,,3323",0
1759848550.0216236,"ECG,,,,,,,,,3320",0
1759848550.0226235,"ECG,,,,,,,,,3309",0
1759848550.0226235,"ECG,,,,,,,,,3223",0
1759848550.0236237,"ECG,,,,,,,,,2776",0
1759848550.0255334,"ECG,,,,,,,,,2127",0
1759848550.0275438,"ECG,,,,,,,,,1550",0
1759848550.0295436,"ECG,,,,,,,,,1261",0
1759848550.0315442,"ECG,,,,,,,,,1311",0
1759848550.0335433,"ECG,,,,,,,,,1743",0
1759848550.040544,"IMU,-0.031,-0.105,0.870,1.670,4554.922,1.600,89.812,-45.011,348.902",0
1759848550.0415435,"ECG,,,,,,,,,3278",0
1759848550.0415435,"ECG,,,,,,,,,3275",0
1759848550.0425427,"ECG,,,,,,,,,3274",0
1759848550.0425427,"ECG,,,,,,,,,3195",0
1759848550.0435443,"ECG,,,,,,,,,2766",0
1759848550.0455446,"ECG,,,,,,,,,2137",0
1759848550.0471506,"ECG,,,,,,,,,1578",0
1759848550.0491602,"ECG,,,,,,,,,1307",0
1759848550.0511606,"ECG,,,,,,,,,1369",0
1759848550.0531616,"ECG,,,,,,,,,1819",0
1759848550.0601683,"IMU,0.004,-0.109,0.885,1.670,0.696,3.478,89.808,-0.001,348.957",0
1759848550.0611649,"ECG,,,,,,,,,3382",0
1759848550.0621624,"ECG,,,,,,,,,3372",0
1759848550.0621624,"ECG,,,,,,,,,3369",0
1759848550.0631623,"ECG,,,,,,,,,3277",0
1759848550.0631623,"ECG,,,,,,,,,2815",0
1759848550.0651615,"ECG,,,,,,,,,2172",0
1759848550.0671532,"ECG,,,,,,,,,1593",0
1759848550.0691657,"ECG,,,,,,,,,1293",0
1759848550.0711918,"ECG,,,,,,,,,1342",0
1759848550.073191,"ECG,,,,,,,,,1770",0
1759848550.0801907,"IMU,-0.023,-0.097,0.874,0.904,1.809,2.852,89.811,-45.011,348.505",0
1759848550.0811903,"ECG,,,,,,,,,3264",0
1759848550.0821903,"ECG,,,,,,,,,3260",0
1759848550.0821903,"ECG,,,,,,,,,3257",0
1759848550.0831902,"ECG,,,,,,,,,3176",0
1759848550.0831902,"ECG,,,,,,,,,2731",0
1759848550.0851903,"ECG,,,,,,,,,2105",0
1759848550.0871558,"ECG,,,,,,,,,1549",0
1759848550.0891654,"ECG,,,,,,,,,1276",0
1759848550.0911658,"ECG,,,,,,,,,1341",0
1759848550.0931654,"ECG,,,,,,,,,1800",0
1759848550.100168,"IMU,-0.023,-0.101,0.874,3.130,1.391,3.478,89.805,-45.015,349.342",0
1759848550.101166,"ECG,,,,,,,,,3336",0
1759848550.1021664,"ECG,,,,,,,,,3325",0
1759848550.1021664,"ECG,,,,,,,,,3323",0
1759848550.1031654,"ECG,,,,,,,,,3240",0
1759848550.1031654,"ECG,,,,,,,,,2795",0
1759848550.1051655,"ECG,,,,,,,,,2158",0
1759848550.1071584,"ECG,,,,,,,,,1608",0
1759848550.109168,"ECG,,,,,,,,,1336",0
1759848550.111168,"ECG,,,,,,,,,1398",0
1759848550.113075,"ECG,,,,,,,,,1832",0
1759848550.1211503,"IMU,-0.035,-0.086,0.839,2.643,1.948,3.409,89.807,-45.015,349.421",0
1759848550.1211503,"ECG,,,,,,,,,3263",0
1759848550.122087,"ECG,,,,,,,,,3262",0
1759848550.122087,"ECG,,,,,,,,,3257",0
1759848550.1230855,"ECG,,,,,,,,,3162",0
1759848550.1230855,"ECG,,,,,,,,,2711",0
1759848550.1250849,"ECG,,,,,,,,,2063",0
1759848550.1270852,"ECG,,,,,,,,,1510",0
1759848550.1290853,"ECG,,,,,,,,,1246",0
1759848550.1311443,"ECG,,,,,,,,,1319",0
1759848550.1330788,"ECG,,,,,,,,,1772",0
1759848550.1410894,"IMU,-0.023,-0.090,0.874,1.391,1.391,3.130,89.812,-45.013,349.421",0
1759848550.1410894,"ECG,,,,,,,,,3305",0
1759848550.1420908,"ECG,,,,,,,,,3303",0
1759848550.1420908,"ECG,,,,,,,,,3292",0
1759848550.14309,"ECG,,,,,,,,,3208",0
1759848550.14309,"ECG,,,,,,,,,2751",0
1759848550.1450894,"ECG,,,,,,,,,2122",0
1759848550.1470897,"ECG,,,,,,,,,1568",0
1759848550.1490889,"ECG,,,,,,,,,1308",0
1759848550.1510894,"ECG,,,,,,,,,1384",0
1759848550.1530902,"ECG,,,,,,,,,1837",0
1759848550.1610906,"IMU,-0.020,-0.105,0.870,1.739,4556.661,2.017,89.816,-45.010,349.421",0
1759848550.162094,"ECG,,,,,,,,,3338",0
1759848550.162094,"ECG,,,,,,,,,3335",0
1759848550.1630907,"ECG,,,,,,,,,3324",0
1759848550.164092,"ECG,,,,,,,,,3228",0
1759848550.1650906,"ECG,,,,,,,,,2761",0
1759848550.1662273,"ECG,,,,,,,,,2106",0
1759848550.1670904,"ECG,,,,,,,,,1533",0
1759848550.1690905,"ECG,,,,,,,,,1262",0
1759848550.1710896,"ECG,,,,,,,,,1326",0
1759848550.173089,"ECG,,,,,,,,,1776",0
1759848550.1811998,"IMU,-0.004,-0.105,0.885,1.878,1.113,2.783,89.811,-45.012,349.421",0
1759848550.1811998,"ECG,,,,,,,,,3292",0
1759848550.1822054,"ECG,,,,,,,,,3289",0
1759848550.1822054,"ECG,,,,,,,,,3279",0
1759848550.1832051,"ECG,,,,,,,,,3183",0
1759848550.1832051,"ECG,,,,,,,,,2734",0
1759848550.1852024,"ECG,,,,,,,,,2090",0
1759848550.187201,"ECG,,,,,,,,,1532",0
1759848550.1892004,"ECG,,,,,,,,,1273",0
1759848550.1912012,"ECG,,,,,,,,,1354",0
1759848550.1932023,"ECG,,,,,,,,,1820",0
1759848550.2002,"IMU,-0.023,-0.097,0.877,1.461,1.252,2.852,89.812,-45.014,349.421",0
1759848550.2012012,"ECG,,,,,,,,,3336",0
1759848550.2012012,"ECG,,,,,,,,,3327",0
1759848550.2022007,"ECG,,,,,,,,,3322",0
1759848550.203201,"ECG,,,,,,,,,3225",0
1759848550.203201,"ECG,,,,,,,,,2765",0
1759848550.2052042,"ECG,,,,,,,,,2124",0
1759848550.2072015,"ECG,,,,,,,,,1567",0
1759848550.2092018,"ECG,,,,,,,,,1307",0
1759848550.2112021,"ECG,,,,,,,,,1387",0
1759848550.2132006,"ECG,,,,,,,,,1835",0
1759848550.2212164,"IMU,-0.023,-0.105,0.870,0.974,1.739,3.339,89.809,-45.013,348.796",0
1759848550.2212164,"ECG,,,,,,,,,3273",0
1759848550.222219,"ECG,,,,,,,,,3271",0
1759848550.222219,"ECG,,,,,,,,,3261",0
1759848550.223216,"ECG,,,,,,,,,3161",0
1759848550.223216,"ECG,,,,,,,,,2699",0
1759848550.2252166,"ECG,,,,,,,,,2045",0
1759848550.2272902,"ECG,,,,,,,,,1500",0
1759848550.2292151,"ECG,,,,,,,,,1256",0
1759848550.2312167,"ECG,,,,,,,,,1343",0
1759848550.2332156,"ECG,,,,,,,,,1821",0
1759848550.2412157,"IMU,-0.016,-0.101,0.870,1.322,0.904,2.852,89.812,-45.011,348.957",0
1759848550.2412157,"ECG,,,,,,,,,3319",0
1759848550.242215,"ECG,,,,,,,,,3307",0
1759848550.242215,"ECG,,,,,,,,,3305",0
1759848550.2432158,"ECG,,,,,,,,,3196",0
1759848550.2432158,"ECG,,,,,,,,,2730",0
1759848550.2452152,"ECG,,,,,,,,,2089",0
1759848550.2472162,"ECG,,,,,,,,,1534",0
1759848550.249216,"ECG,,,,,,,,,1292",0
1759848550.2512147,"ECG,,,,,,,,,1391",0
1759848550.2532148,"ECG,,,,,,,,,1867",0
1759848550.261217,"IMU,-0.020,-0.097,0.874,1.809,1.530,2.991,89.812,-45.013,349.036",0
1759848550.261217,"ECG,,,,,,,,,3353",0
1759848550.2622154,"ECG,,,,,,,,,3341",0
1759848550.2622154,"ECG,,,,,,,,,3336",0
1759848550.2632153,"ECG,,,,,,,,,3224",0
1759848550.2632153,"ECG,,,,,,,,,2736",0
1759848550.2652147,"ECG,,,,,,,,,2078",0
1759848550.2671793,"ECG,,,,,,,,,1530",0
1759848550.2691898,"ECG,,,,,,,,,1274",0
1759848550.2710948,"ECG,,,,,,,,,1367",0
1759848550.273106,"ECG,,,,,,,,,1823",0
1759848550.2811058,"IMU,-0.023,-0.097,0.877,1.322,0.974,3.200,89.811,-45.012,348.557",0
1759848550.2811058,"ECG,,,,,,,,,3277",0
1759848550.2821083,"ECG,,,,,,,,,3273",0
1759848550.2821083,"ECG,,,,,,,,,3261",0
1759848550.283106,"ECG,,,,,,,,,3149",0
1759848550.283106,"ECG,,,,,,,,,2664",0
1759848550.2851052,"ECG,,,,,,,,,1977",0
1759848550.2871063,"ECG,,,,,,,,,1416",0
1759848550.2890844,"ECG,,,,,,,,,1177",0
1759848550.291083,"ECG,,,,,,,,,1277",0
1759848550.293182,"ECG,,,,,,,,,1756",0
1759848550.3011055,"IMU,-0.020,-0.101,0.866,0.765,4556.035,1.948,89.828,-45.008,348.540",0
1759848550.302107,"ECG,,,,,,,,,3225",0
1759848550.302107,"ECG,,,,,,,,,3215",0
1759848550.303107,"ECG,,,,,,,,,3208",0
1759848550.303107,"ECG,,,,,,,,,3102",0
1759848550.304109,"ECG,,,,,,,,,2621",0
1759848550.3051052,"ECG,,,,,,,,,1976",0
1759848550.3071206,"ECG,,,,,,,,,1422",0
1759848550.3091378,"ECG,,,,,,,,,1196",0
1759848550.3111353,"ECG,,,,,,,,,1307",0
1759848550.3131323,"ECG,,,,,,,,,1791",0
1759848550.321135,"IMU,-0.004,-0.094,0.967,4553.600,5.357,3.896,89.790,-45.013,348.540",0
1759848550.321135,"ECG,,,,,,,,,3274",0
1759848550.3221366,"ECG,,,,,,,,,3262",0
1759848550.3221366,"ECG,,,,,,,,,3255",0
1759848550.3231363,"ECG,,,,,,,,,3132",0
1759848550.3231363,"ECG,,,,,,,,,2619",0
1759848550.3251345,"ECG,,,,,,,,,1945",0
1759848550.3271859,"ECG,,,,,,,,,1405",0
1759848550.329196,"ECG,,,,,,,,,1209",0
1759848550.3311973,"ECG,,,,,,,,,1358",0
1759848550.3331969,"ECG,,,,,,,,,1870",0
1759848550.3407044,"IMU,0.000,-0.164,0.862,5.635,2.435,2.991,89.813,-0.000,348.540",0
1759848550.3407044,"ECG,,,,,,,,,3323",0
1759848550.3417041,"ECG,,,,,,,,,3308",0
1759848550.3417041,"ECG,,,,,,,,,3304",0
1759848550.342704,"ECG,,,,,,,,,3177",0
1759848550.342704,"ECG,,,,,,,,,2683",0
1759848550.3447063,"ECG,,,,,,,,,2014",0
1759848550.3471053,"ECG,,,,,,,,,1470",0
1759848550.3487163,"ECG,,,,,,,,,1240",0
1759848550.3515978,"ECG,,,,,,,,,1368",0
1759848550.3535955,"ECG,,,,,,,,,1880",0
1759848550.3615956,"IMU,-0.012,-0.097,0.874,2.087,4558.539,3.548,89.811,-45.013,348.540",0
1759848550.3615956,"ECG,,,,,,,,,3336",0
1759848550.3625948,"ECG,,,,,,,,,3325",0
1759848550.3625948,"ECG,,,,,,,,,3311",0
1759848550.3635952,"ECG,,,,,,,,,3195",0
1759848550.3635952,"ECG,,,,,,,,,2685",0
1759848550.365598,"ECG,,,,,,,,,2014",0
1759848550.3675952,"ECG,,,,,,,,,1467",0
1759848550.369595,"ECG,,,,,,,,,1244",0
1759848550.3711917,"ECG,,,,,,,,,1370",0
1759848550.3732023,"ECG,,,,,,,,,1870",0
1759848550.3806334,"IMU,-0.027,-0.082,0.866,0.000,4558.748,2.643,89.812,-45.009,348.540",0
1759848550.3816326,"ECG,,,,,,,,,3342",0
1759848550.3816326,"ECG,,,,,,,,,3338",0
1759848550.3826318,"ECG,,,,,,,,,3325",0
1759848550.3826318,"ECG,,,,,,,,,3208",0
1759848550.3836324,"ECG,,,,,,,,,2698",0
1759848550.3846328,"ECG,,,,,,,,,2026",0
1759848550.3876328,"ECG,,,,,,,,,1480",0
1759848550.3886323,"ECG,,,,,,,,,1259",0
1759848550.3916326,"ECG,,,,,,,,,1400",0
1759848550.3936338,"ECG,,,,,,,,,1913",0
1759848550.4016504,"IMU,-0.031,-0.090,0.881,0.209,4558.609,2.504,89.809,-45.010,348.540",0
1759848550.4016504,"ECG,,,,,,,,,3383",0
1759848550.4026506,"ECG,,,,,,,,,3369",0
1759848550.4026506,"ECG,,,,,,,,,3359",0
1759848550.4036531,"ECG,,,,,,,,,3239",0
1759848550.4036531,"ECG,,,,,,,,,2730",0
1759848550.4056377,"ECG,,,,,,,,,2058",0
1759848550.4076452,"ECG,,,,,,,,,1501",0
1759848550.4091146,"ECG,,,,,,,,,1274",0
1759848550.4106572,"ECG,,,,,,,,,1392",0
1759848550.4130952,"ECG,,,,,,,,,1903",0
1759848550.4203165,"IMU,-0.004,-0.125,0.885,2.574,1.322,3.130,89.808,-45.017,349.975",0
1759848550.421314,"ECG,,,,,,,,,3356",0
1759848550.421314,"ECG,,,,,,,,,3351",0
1759848550.4223118,"ECG,,,,,,,,,3339",0
1759848550.4223118,"ECG,,,,,,,,,3214",0
1759848550.4233124,"ECG,,,,,,,,,2715",0
1759848550.4254594,"ECG,,,,,,,,,2060",0
1759848550.4273129,"ECG,,,,,,,,,1515",0
1759848550.4293127,"ECG,,,,,,,,,1291",0
1759848550.4311898,"ECG,,,,,,,,,1418",0
1759848550.4332013,"ECG,,,,,,,,,1915",0
1759848550.4399617,"IMU,-0.020,-0.097,0.870,0.626,0.765,2.713,89.812,-45.012,349.167",0
1759848550.4409614,"ECG,,,,,,,,,3355",0
1759848550.4419622,"ECG,,,,,,,,,3352",0
1759848550.4419622,"ECG,,,,,,,,,3339",0
1759848550.4429626,"ECG,,,,,,,,,3226",0
1759848550.4429626,"ECG,,,,,,,,,2731",0
1759848550.4449615,"ECG,,,,,,,,,2074",0
1759848550.4469616,"ECG,,,,,,,,,1532",0
1759848550.4489632,"ECG,,,,,,,,,1309",0
1759848550.4509614,"ECG,,,,,,,,,1431",0
1759848550.4529614,"ECG,,,,,,,,,1917",0
1759848550.459967,"IMU,-0.016,-0.094,0.877,0.765,0.417,2.713,89.810,-45.012,348.970",0
1759848550.4609764,"ECG,,,,,,,,,3355",0
1759848550.4619765,"ECG,,,,,,,,,3342",0
1759848550.4619765,"ECG,,,,,,,,,3335",0
1759848550.4629784,"ECG,,,,,,,,,3209",0
1759848550.4629784,"ECG,,,,,,,,,2698",0
1759848550.4652035,"ECG,,,,,,,,,2026",0
1759848550.4669828,"ECG,,,,,,,,,1479",0
1759848550.4689894,"ECG,,,,,,,,,1260",0
1759848550.4709878,"ECG,,,,,,,,,1390",0
1759848550.4729912,"ECG,,,,,,,,,1899",0
1759848550.4810128,"IMU,-0.012,-0.109,0.870,1.670,0.904,3.130,89.812,-45.014,348.970",0
1759848550.4810128,"ECG,,,,,,,,,3325",0
1759848550.4820101,"ECG,,,,,,,,,3320",0
1759848550.4820101,"ECG,,,,,,,,,3310",0
1759848550.4830115,"ECG,,,,,,,,,3193",0
1759848550.4830115,"ECG,,,,,,,,,2685",0
1759848550.48501,"ECG,,,,,,,,,2026",0
1759848550.4870102,"ECG,,,,,,,,,1500",0
1759848550.48901,"ECG,,,,,,,,,1293",0
1759848550.491012,"ECG,,,,,,,,,1439",0
1759848550.4930098,"ECG,,,,,,,,,1959",0
1759848550.5004575,"IMU,-0.020,-0.105,0.862,2.365,0.974,3.270,89.813,-45.013,349.518",0
1759848550.5004575,"ECG,,,,,,,,,3354",0
1759848550.5014572,"ECG,,,,,,,,,3342",0
1759848550.5024564,"ECG,,,,,,,,,3328",0
1759848550.5024564,"ECG,,,,,,,,,3209",0
1759848550.503457,"ECG,,,,,,,,,2682",0
1759848550.5054579,"ECG,,,,,,,,,2009",0
1759848550.507457,"ECG,,,,,,,,,1464",0
1759848550.5094576,"ECG,,,,,,,,,1255",0
1759848550.5114584,"ECG,,,,,,,,,1388",0
1759848550.5134578,"ECG,,,,,,,,,1911",0
1759848550.5204577,"IMU,-0.020,-0.097,0.881,0.348,0.904,2.713,89.809,-45.012,349.518",0
1759848550.5214574,"ECG,,,,,,,,,3340",0
1759848550.5214574,"ECG,,,,,,,,,3327",0
1759848550.5224566,"ECG,,,,,,,,,3320",0
1759848550.5224566,"ECG,,,,,,,,,3191",0
1759848550.5234573,"ECG,,,,,,,,,2680",0
1759848550.525458,"ECG,,,,,,,,,2008",0
1759848550.5274575,"ECG,,,,,,,,,1464",0
1759848550.5294569,"ECG,,,,,,,,,1257",0
1759848550.5314615,"ECG,,,,,,,,,1403",0
1759848550.5334582,"ECG,,,,,,,,,1918",0
1759848550.540458,"IMU,-0.012,-0.101,0.874,1.322,0.348,2.852,89.811,-45.013,349.518",0
1759848550.5414574,"ECG,,,,,,,,,3338",0
1759848550.5414574,"ECG,,,,,,,,,3324",0
1759848550.5424576,"ECG,,,,,,,,,3311",0
1759848550.5424576,"ECG,,,,,,,,,3193",0
1759848550.543458,"ECG,,,,,,,,,2685",0
1759848550.5454612,"ECG,,,,,,,,,2027",0
1759848550.5474577,"ECG,,,,,,,,,1495",0
1759848550.549458,"ECG,,,,,,,,,1277",0
1759848550.5514576,"ECG,,,,,,,,,1417",0
1759848550.5534582,"ECG,,,,,,,,,1928",0
1759848550.5604837,"IMU,-0.008,-0.109,0.862,2.574,0.139,3.200,89.813,-45.015,349.518",0
1759848550.5604837,"ECG,,,,,,,,,3307",0
1759848550.5614812,"ECG,,,,,,,,,3291",0
1759848550.562481,"ECG,,,,,,,,,3288",0
1759848550.562481,"ECG,,,,,,,,,3151",0
1759848550.5634806,"ECG,,,,,,,,,2633",0
1759848550.5654824,"ECG,,,,,,,,,1964",0
1759848550.5674908,"ECG,,,,,,,,,1435",0
1759848550.5694897,"ECG,,,,,,,,,1241",0
1759848550.5714898,"ECG,,,,,,,,,1402",0
1759848550.572848,"ECG,,,,,,,,,1933",0
1759848550.5800478,"IMU,-0.020,-0.097,0.885,0.974,1.322,2.643,89.808,-45.012,349.518",0
1759848550.5810475,"ECG,,,,,,,,,3341",0
1759848550.5820456,"ECG,,,,,,,,,3327",0
1759848550.5820456,"ECG,,,,,,,,,3320",0
1759848550.5830445,"ECG,,,,,,,,,3182",0
1759848550.5830445,"ECG,,,,,,,,,2663",0
1759848550.5850441,"ECG,,,,,,,,,1992",0
1759848550.5870495,"ECG,,,,,,,,,1449",0
1759848550.5890443,"ECG,,,,,,,,,1245",0
1759848550.5910444,"ECG,,,,,,,,,1401",0
1759848550.5932195,"ECG,,,,,,,,,1931",0
1759848550.600051,"IMU,-0.020,-0.097,0.877,1.043,0.417,2.852,89.810,-45.012,349.582",0
1759848550.6010578,"ECG,,,,,,,,,3336",0
1759848550.6010578,"ECG,,,,,,,,,3322",0
1759848550.6020584,"ECG,,,,,,,,,3307",0
1759848550.6030576,"ECG,,,,,,,,,3178",0
1759848550.6030576,"ECG,,,,,,,,,2653",0
1759848550.6050582,"ECG,,,,,,,,,1989",0
1759848550.6070635,"ECG,,,,,,,,,1450",0
1759848550.6090643,"ECG,,,,,,,,,1255",0
1759848550.611066,"ECG,,,,,,,,,1403",0
1759848550.6130633,"ECG,,,,,,,,,1929",0
1759848550.620448,"IMU,-0.012,-0.105,0.874,1.252,1.252,2.991,89.811,-45.014,349.015",0
1759848550.6214476,"ECG,,,,,,,,,3341",0
1759848550.6214476,"ECG,,,,,,,,,3325",0
1759848550.6224492,"ECG,,,,,,,,,3319",0
1759848550.6224492,"ECG,,,,,,,,,3183",0
1759848550.6234486,"ECG,,,,,,,,,2666",0
1759848550.6254485,"ECG,,,,,,,,,1999",0
1759848550.6274474,"ECG,,,,,,,,,1480",0
1759848550.6294487,"ECG,,,,,,,,,1278",0
1759848550.631448,"ECG,,,,,,,,,1438",0
1759848550.6334476,"ECG,,,,,,,,,1960",0
1759848550.6404648,"IMU,-0.016,-0.097,0.870,1.530,0.974,2.991,89.812,-45.012,349.818",0
1759848550.6414661,"ECG,,,,,,,,,3338",0
1759848550.6414661,"ECG,,,,,,,,,3324",0
1759848550.6424654,"ECG,,,,,,,,,3319",0
1759848550.6424654,"ECG,,,,,,,,,3183",0
1759848550.6434665,"ECG,,,,,,,,,2665",0
1759848550.645468,"ECG,,,,,,,,,1995",0
1759848550.6474936,"ECG,,,,,,,,,1466",0
1759848550.6494713,"ECG,,,,,,,,,1259",0
1759848550.6514914,"ECG,,,,,,,,,1416",0
1759848550.6534898,"ECG,,,,,,,,,1934",0
1759848550.6605983,"IMU,-0.012,-0.097,0.870,1.322,2.435,3.200,89.812,-45.013,349.494",0
1759848550.6605983,"ECG,,,,,,,,,3352",0
1759848550.6615984,"ECG,,,,,,,,,3338",0
1759848550.6615984,"ECG,,,,,,,,,3323",0
1759848550.662598,"ECG,,,,,,,,,3193",0
1759848550.6635985,"ECG,,,,,,,,,2666",0
1759848550.6655986,"ECG,,,,,,,,,1996",0
1759848550.6675985,"ECG,,,,,,,,,1454",0
1759848550.669598,"ECG,,,,,,,,,1256",0
1759848550.6715996,"ECG,,,,,,,,,1416",0
1759848550.6735995,"ECG,,,,,,,,,1945",0
1759848550.6805987,"IMU,-0.020,-0.101,0.874,1.252,1.113,2.713,89.811,-45.012,349.254",0
1759848550.6805987,"ECG,,,,,,,,,3352",0
1759848550.6815991,"ECG,,,,,,,,,3337",0
1759848550.6815991,"ECG,,,,,,,,,3323",0
1759848550.6825979,"ECG,,,,,,,,,3196",0
1759848550.683598,"ECG,,,,,,,,,2680",0
1759848550.6855996,"ECG,,,,,,,,,2014",0
1759848550.6871483,"ECG,,,,,,,,,1483",0
1759848550.6891599,"ECG,,,,,,,,,1275",0
1759848550.6911597,"ECG,,,,,,,,,1431",0
1759848550.6931489,"ECG,,,,,,,,,1949",0
1759848550.7001593,"IMU,-0.016,-0.105,0.874,1.043,0.974,2.852,89.811,-45.013,349.614",0
1759848550.7011595,"ECG,,,,,,,,,3319",0
1759848550.7011595,"ECG,,,,,,,,,3305",0
1759848550.70216,"ECG,,,,,,,,,3291",0
1759848550.70216,"ECG,,,,,,,,,3149",0
1759848550.703159,"ECG,,,,,,,,,2620",0
1759848550.7051604,"ECG,,,,,,,,,1962",0
1759848550.7071593,"ECG,,,,,,,,,1449",0
1759848550.709159,"ECG,,,,,,,,,1262",0
1759848550.7111506,"ECG,,,,,,,,,1435",0
1759848550.7131615,"ECG,,,,,,,,,1974",0
1759848550.7202718,"IMU,-0.012,-0.101,0.877,1.461,0.696,3.130,89.810,-45.013,349.614",0
1759848550.7211769,"ECG,,,,,,,,,3338",0
1759848550.7211769,"ECG,,,,,,,,,3321",0
1759848550.7221744,"ECG,,,,,,,,,3308",0
1759848550.7231758,"ECG,,,,,,,,,3176",0
1759848550.7231758,"ECG,,,,,,,,,2648",0
1759848550.7251751,"ECG,,,,,,,,,1982",0
1759848550.7270691,"ECG,,,,,,,,,1466",0
1759848550.7290795,"ECG,,,,,,,,,1274",0
1759848550.7310796,"ECG,,,,,,,,,1449",0
1759848550.733082,"ECG,,,,,,,,,1977",0
1759848550.7400815,"IMU,-0.016,-0.101,0.870,1.391,0.974,2.713,89.812,-45.013,349.614",0
1759848550.7410817,"ECG,,,,,,,,,3327",0
1759848550.7410817,"ECG,,,,,,,,,3311",0
1759848550.7420807,"ECG,,,,,,,,,3295",0
1759848550.7430797,"ECG,,,,,,,,,3166",0
1759848550.7430797,"ECG,,,,,,,,,2639",0
1759848550.745093,"ECG,,,,,,,,,1991",0
1759848550.7471032,"ECG,,,,,,,,,1468",0
1759848550.7492406,"ECG,,,,,,,,,1273",0
1759848550.751251,"ECG,,,,,,,,,1435",0
1759848550.7532532,"ECG,,,,,,,,,1961",0
1759848550.7602575,"IMU,-0.016,-0.101,0.870,1.252,0.904,2.991,89.812,-45.013,349.614",0
1759848550.7612581,"ECG,,,,,,,,,3306",0
1759848550.7612581,"ECG,,,,,,,,,3292",0
1759848550.7622564,"ECG,,,,,,,,,3278",0
1759848550.7622564,"ECG,,,,,,,,,3148",0
1759848550.7632568,"ECG,,,,,,,,,2635",0
1759848550.7652557,"ECG,,,,,,,,,1982",0
1759848550.767257,"ECG,,,,,,,,,1468",0
1759848550.7692566,"ECG,,,,,,,,,1278",0
1759848550.7712557,"ECG,,,,,,,,,1437",0
1759848550.7732565,"ECG,,,,,,,,,1965",0
1759848550.7802563,"IMU,-0.012,-0.105,0.881,1.530,0.974,3.200,89.809,-45.014,349.614",0
1759848550.7812557,"ECG,,,,,,,,,3328",0
1759848550.7822607,"ECG,,,,,,,,,3322",0
1759848550.7822607,"ECG,,,,,,,,,3306",0
1759848550.7832603,"ECG,,,,,,,,,3175",0
1759848550.7832603,"ECG,,,,,,,,,2647",0
1759848550.7852585,"ECG,,,,,,,,,1991",0
1759848550.7872584,"ECG,,,,,,,,,1467",0
1759848550.789258,"ECG,,,,,,,,,1262",0
1759848550.7912586,"ECG,,,,,,,,,1422",0
1759848550.7932582,"ECG,,,,,,,,,1952",0
1759848550.8002603,"IMU,-0.020,-0.101,0.874,1.670,0.696,3.130,89.812,-45.013,349.494",0
1759848550.801263,"ECG,,,,,,,,,3294",0
1759848550.801263,"ECG,,,,,,,,,3279",0
1759848550.8022602,"ECG,,,,,,,,,3271",0
1759848550.8032568,"ECG,,,,,,,,,3132",0
1759848550.8032568,"ECG,,,,,,,,,2604",0
1759848550.8052595,"ECG,,,,,,,,,1960",0
1759848550.8072581,"ECG,,,,,,,,,1438",0
1759848550.8092587,"ECG,,,,,,,,,1256",0
1759848550.8112588,"ECG,,,,,,,,,1432",0
1759848550.8132606,"ECG,,,,,,,,,1962",0
1759848550.8202586,"IMU,-0.016,-0.101,0.874,1.530,0.974,2.852,89.812,-45.012,349.621",0
1759848550.821258,"ECG,,,,,,,,,3322",0
1759848550.821258,"ECG,,,,,,,,,3308",0
1759848550.8222594,"ECG,,,,,,,,,3292",0
1759848550.8222594,"ECG,,,,,,,,,3159",0
1759848550.8232596,"ECG,,,,,,,,,2622",0
1759848550.8252585,"ECG,,,,,,,,,1968",0
1759848550.8272586,"ECG,,,,,,,,,1454",0
1759848550.8302615,"ECG,,,,,,,,,1272",0
1759848550.8312576,"ECG,,,,,,,,,1437",0
1759848550.833258,"ECG,,,,,,,,,1967",0
1759848550.8412564,"IMU,-0.020,-0.101,0.874,1.809,0.974,2.991,89.810,-45.013,349.849",0
1759848550.8412564,"ECG,,,,,,,,,3277",0
1759848550.842258,"ECG,,,,,,,,,3262",0
1759848550.8432584,"ECG,,,,,,,,,3248",0
1759848550.8442576,"ECG,,,,,,,,,3115",0
1759848550.8452578,"ECG,,,,,,,,,2585",0
1759848550.8462567,"ECG,,,,,,,,,1933",0
1759848550.8472574,"ECG,,,,,,,,,1424",0
1759848550.8492565,"ECG,,,,,,,,,1241",0
1759848550.851257,"ECG,,,,,,,,,1419",0
1759848550.8532567,"ECG,,,,,,,,,1961",0
1759848550.8612561,"IMU,-0.020,-0.101,0.870,1.113,1.183,2.852,89.811,-45.011,349.709",0
1759848550.8622563,"ECG,,,,,,,,,3326",0
1759848550.8632557,"ECG,,,,,,,,,3309",0
1759848550.864256,"ECG,,,,,,,,,3294",0
1759848550.864256,"ECG,,,,,,,,,3162",0
1759848550.8652563,"ECG,,,,,,,,,2631",0
1759848550.8662581,"ECG,,,,,,,,,1963",0
1759848550.8672566,"ECG,,,,,,,,,1449",0
1759848550.8692567,"ECG,,,,,,,,,1271",0
1759848550.8712564,"ECG,,,,,,,,,1451",0
1759848550.8732572,"ECG,,,,,,,,,1996",0
1759848550.880256,"IMU,-0.020,-0.101,0.870,1.322,1.391,3.339,89.811,-45.013,349.646",0
1759848550.8812578,"ECG,,,,,,,,,3342",0
1759848550.8812578,"ECG,,,,,,,,,3326",0
1759848550.8822558,"ECG,,,,,,,,,3318",0
1759848550.8822558,"ECG,,,,,,,,,3178",0
1759848550.8832564,"ECG,,,,,,,,,2635",0
1759848550.885256,"ECG,,,,,,,,,1976",0
1759848550.8872573,"ECG,,,,,,,,,1449",0
1759848550.8892567,"ECG,,,,,,,,,1257",0
1759848550.891258,"ECG,,,,,,,,,1436",0
1759848550.8932586,"ECG,,,,,,,,,1977",0
1759848550.9002597,"IMU,-0.020,-0.101,0.874,1.530,0.835,2.783,89.811,-45.013,349.646",0
1759848550.9012556,"ECG,,,,,,,,,3323",0
1759848550.9012556,"ECG,,,,,,,,,3308",0
1759848550.9022565,"ECG,,,,,,,,,3291",0
1759848550.9022565,"ECG,,,,,,,,,3160",0
1759848550.9032567,"ECG,,,,,,,,,2618",0
1759848550.9052577,"ECG,,,,,,,,,1951",0
1759848550.9072616,"ECG,,,,,,,,,1438",0
1759848550.9092567,"ECG,,,,,,,,,1262",0
1759848550.9112558,"ECG,,,,,,,,,1451",0
1759848550.9132555,"ECG,,,,,,,,,1995",0
1759848550.9204385,"IMU,-0.020,-0.101,0.877,1.322,1.113,3.061,89.811,-45.012,349.646",0
1759848550.9212608,"ECG,,,,,,,,,3336",0
1759848550.922259,"ECG,,,,,,,,,3322",0
1759848550.922259,"ECG,,,,,,,,,3306",0
1759848550.9232574,"ECG,,,,,,,,,3165",0
1759848550.9242563,"ECG,,,,,,,,,2637",0
1759848550.9252563,"ECG,,,,,,,,,1981",0
1759848550.9272563,"ECG,,,,,,,,,1468",0
1759848550.929257,"ECG,,,,,,,,,1286",0
1759848550.931256,"ECG,,,,,,,,,1466",0
1759848550.933256,"ECG,,,,,,,,,2007",0
1759848550.9402564,"IMU,-0.020,-0.101,0.870,1.461,0.835,3.130,89.811,-45.012,349.646",0
1759848550.9412587,"ECG,,,,,,,,,3294",0
1759848550.9412587,"ECG,,,,,,,,,3276",0
1759848550.9422562,"ECG,,,,,,,,,3261",0
1759848550.9422562,"ECG,,,,,,,,,3119",0
1759848550.943257,"ECG,,,,,,,,,2583",0
1759848550.9452577,"ECG,,,,,,,,,1931",0
1759848550.947257,"ECG,,,,,,,,,1431",0
1759848550.949257,"ECG,,,,,,,,,1256",0
1759848550.9512577,"ECG,,,,,,,,,1440",0
1759848550.9532557,"ECG,,,,,,,,,1978",0
1759848550.960256,"IMU,-0.012,-0.105,0.874,1.391,0.974,2.922,89.811,-45.012,349.646",0
1759848550.961256,"ECG,,,,,,,,,3306",0
1759848550.961256,"ECG,,,,,,,,,3288",0
1759848550.9622579,"ECG,,,,,,,,,3272",0
1759848550.9622579,"ECG,,,,,,,,,3134",0
1759848550.9632566,"ECG,,,,,,,,,2605",0
1759848550.9652557,"ECG,,,,,,,,,1962",0
1759848550.9672875,"ECG,,,,,,,,,1464",0
1759848550.9692578,"ECG,,,,,,,,,1288",0
1759848550.9712558,"ECG,,,,,,,,,1469",0
1759848550.9732559,"ECG,,,,,,,,,2009",0
1759848550.980256,"IMU,-0.020,-0.101,0.874,1.322,1.461,3.270,89.811,-45.013,349.526",0
1759848550.9812562,"ECG,,,,,,,,,3306",0
1759848550.9812562,"ECG,,,,,,,,,3288",0
1759848550.982258,"ECG,,,,,,,,,3264",0
1759848550.982258,"ECG,,,,,,,,,3130",0
1759848550.983257,"ECG,,,,,,,,,2590",0
1759848550.985256,"ECG,,,,,,,,,1945",0
1759848550.9872568,"ECG,,,,,,,,,1437",0
1759848550.989256,"ECG,,,,,,,,,1256",0
1759848550.9912562,"ECG,,,,,,,,,1438",0
1759848550.9932559,"ECG,,,,,,,,,1977",0
1759848551.0002575,"IMU,-0.016,-0.101,0.870,1.670,1.183,3.270,89.812,-45.012,349.178",0
1759848551.0012574,"ECG,,,,,,,,,3288",0
1759848551.0012574,"ECG,,,,,,,,,3272",0
1759848551.0022593,"ECG,,,,,,,,,3256",0
1759848551.0022593,"ECG,,,,,,,,,3115",0
1759848551.0032578,"ECG,,,,,,,,,2574",0
1759848551.0052564,"ECG,,,,,,,,,1929",0
1759848551.007257,"ECG,,,,,,,,,1419",0
1759848551.0092561,"ECG,,,,,,,,,1248",0
1759848551.0112567,"ECG,,,,,,,,,1447",0
1759848551.0132568,"ECG,,,,,,,,,1992",0
1759848551.020256,"IMU,-0.016,-0.101,0.874,1.322,1.461,3.061,89.811,-45.013,349.462",0
1759848551.0212567,"ECG,,,,,,,,,3321",0
1759848551.0212567,"ECG,,,,,,,,,3295",0
1759848551.022256,"ECG,,,,,,,,,3278",0
1759848551.022256,"ECG,,,,,,,,,3144",0
1759848551.023256,"ECG,,,,,,,,,2602",0
1759848551.0252566,"ECG,,,,,,,,,1947",0
1759848551.0272584,"ECG,,,,,,,,,1433",0
1759848551.0292575,"ECG,,,,,,,,,1246",0
1759848551.0312567,"ECG,,,,,,,,,1434",0
1759848551.0332568,"ECG,,,,,,,,,1976",0
1759848551.0402565,"IMU,-0.020,-0.101,0.870,1.600,1.113,3.061,89.812,-45.012,349.438",0
1759848551.0412564,"ECG,,,,,,,,,3272",0
1759848551.0412564,"ECG,,,,,,,,,3256",0
1759848551.0422556,"ECG,,,,,,,,,3239",0
1759848551.0422556,"ECG,,,,,,,,,3100",0
1759848551.0432577,"ECG,,,,,,,,,2568",0
1759848551.0452573,"ECG,,,,,,,,,1916",0
1759848551.047256,"ECG,,,,,,,,,1418",0
1759848551.0492556,"ECG,,,,,,,,,1243",0
1759848551.0512564,"ECG,,,,,,,,,1437",0
1759848551.053257,"ECG,,,,,,,,,1983",0
1759848551.060257,"IMU,-0.020,-0.097,0.874,1.391,1.113,2.922,89.811,-45.012,348.843",0
1759848551.0612562,"ECG,,,,,,,,,3290",0
1759848551.0612562,"ECG,,,,,,,,,3272",0
1759848551.0622559,"ECG,,,,,,,,,3257",0
1759848551.0622559,"ECG,,,,,,,,,3114",0
1759848551.063256,"ECG,,,,,,,,,2573",0
1759848551.0652556,"ECG,,,,,,,,,1928",0
1759848551.0672567,"ECG,,,,,,,,,1432",0
1759848551.0692556,"ECG,,,,,,,,,1262",0
1759848551.0712564,"ECG,,,,,,,,,1455",0
1759848551.0732574,"ECG,,,,,,,,,2008",0
1759848551.0802562,"IMU,-0.020,-0.101,0.874,1.461,1.183,2.713,89.811,-45.012,349.828",0
1759848551.0812564,"ECG,,,,,,,,,3275",0
1759848551.0812564,"ECG,,,,,,,,,3257",0
1759848551.0822573,"ECG,,,,,,,,,3240",0
1759848551.0822573,"ECG,,,,,,,,,3088",0
1759848551.0832691,"ECG,,,,,,,,,2542",0
1759848551.0852659,"ECG,,,,,,,,,1882",0
1759848551.0872664,"ECG,,,,,,,,,1373",0
1759848551.0892675,"ECG,,,,,,,,,1198",0
1759848551.0912666,"ECG,,,,,,,,,1416",0
1759848551.0932665,"ECG,,,,,,,,,1976",0
1759848551.1002674,"IMU,-0.012,-0.105,0.881,1.322,1.183,3.339,89.809,-45.014,349.828",0
1759848551.1012666,"ECG,,,,,,,,,3291",0
1759848551.1022677,"ECG,,,,,,,,,3277",0
1759848551.1022677,"ECG,,,,,,,,,3256",0
1759848551.103267,"ECG,,,,,,,,,3114",0
1759848551.103267,"ECG,,,,,,,,,2556",0
1759848551.1052675,"ECG,,,,,,,,,1895",0
1759848551.1072667,"ECG,,,,,,,,,1389",0
1759848551.109267,"ECG,,,,,,,,,1224",0
1759848551.1112676,"ECG,,,,,,,,,1432",0
1759848551.1132672,"ECG,,,,,,,,,1995",0
1759848551.120267,"IMU,-0.020,-0.097,0.870,1.183,1.252,2.991,89.812,-45.012,349.828",0
1759848551.1212668,"ECG,,,,,,,,,3307",0
1759848551.1222675,"ECG,,,,,,,,,3288",0
1759848551.1222675,"ECG,,,,,,,,,3271",0
1759848551.1232672,"ECG,,,,,,,,,3128",0
1759848551.1232672,"ECG,,,,,,,,,2569",0
1759848551.1252668,"ECG,,,,,,,,,1902",0
1759848551.127267,"ECG,,,,,,,,,1405",0
1759848551.1292672,"ECG,,,,,,,,,1240",0
1759848551.1312816,"ECG,,,,,,,,,1446",0
1759848551.1332805,"ECG,,,,,,,,,1996",0
1759848551.1402807,"IMU,-0.016,-0.101,0.877,1.600,1.461,3.200,89.810,-45.013,349.828",0
1759848551.1412804,"ECG,,,,,,,,,3290",0
1759848551.1412804,"ECG,,,,,,,,,3274",0
1759848551.1422808,"ECG,,,,,,,,,3257",0
1759848551.1432807,"ECG,,,,,,,,,3112",0
1759848551.1432807,"ECG,,,,,,,,,2556",0
1759848551.1452808,"ECG,,,,,,,,,1898",0
1759848551.14728,"ECG,,,,,,,,,1402",0
1759848551.1492798,"ECG,,,,,,,,,1238",0
1759848551.1512804,"ECG,,,,,,,,,1449",0
1759848551.1532798,"ECG,,,,,,,,,2011",0
1759848551.1602802,"IMU,-0.016,-0.097,0.877,1.322,1.113,3.061,89.810,-45.012,349.828",0
1759848551.1612802,"ECG,,,,,,,,,3306",0
1759848551.1612802,"ECG,,,,,,,,,3287",0
1759848551.1622808,"ECG,,,,,,,,,3271",0
1759848551.16328,"ECG,,,,,,,,,3119",0
1759848551.16328,"ECG,,,,,,,,,2570",0
1759848551.1652796,"ECG,,,,,,,,,1917",0
1759848551.1672802,"ECG,,,,,,,,,1432",0
1759848551.1692808,"ECG,,,,,,,,,1274",0
1759848551.1712801,"ECG,,,,,,,,,1496",0
1759848551.17328,"ECG,,,,,,,,,2048",0
1759848551.1802802,"IMU,-0.012,-0.105,0.877,1.600,1.530,2.991,89.810,-45.014,348.970",0
1759848551.1812804,"ECG,,,,,,,,,3290",0
1759848551.1812804,"ECG,,,,,,,,,3274",0
1759848551.1822808,"ECG,,,,,,,,,3246",0
1759848551.1832807,"ECG,,,,,,,,,3112",0
1759848551.1832807,"ECG,,,,,,,,,2554",0
1759848551.1852803,"ECG,,,,,,,,,1912",0
1759848551.18728,"ECG,,,,,,,,,1419",0
1759848551.1892798,"ECG,,,,,,,,,1254",0
1759848551.1912806,"ECG,,,,,,,,,1465",0
1759848551.19328,"ECG,,,,,,,,,2008",0
1759848551.20028,"IMU,-0.016,-0.101,0.870,1.530,1.043,3.130,89.812,-45.013,349.589",0
1759848551.2012804,"ECG,,,,,,,,,3259",0
1759848551.2012804,"ECG,,,,,,,,,3242",0
1759848551.202281,"ECG,,,,,,,,,3216",0
1759848551.2032807,"ECG,,,,,,,,,3081",0
1759848551.2032807,"ECG,,,,,,,,,2525",0
1759848551.2052803,"ECG,,,,,,,,,1887",0
1759848551.2072804,"ECG,,,,,,,,,1415",0
1759848551.20928,"ECG,,,,,,,,,1271",0
1759848551.2112799,"ECG,,,,,,,,,1498",0
1759848551.2132814,"ECG,,,,,,,,,2073",0
1759848551.2202883,"IMU,-0.020,-0.101,0.874,1.113,1.322,3.061,89.811,-45.012,349.015",0
1759848551.2212915,"ECG,,,,,,,,,3319",0
1759848551.2212915,"ECG,,,,,,,,,3294",0
1759848551.2222824,"ECG,,,,,,,,,3275",0
1759848551.2232811,"ECG,,,,,,,,,3119",0
1759848551.2232811,"ECG,,,,,,,,,2555",0
1759848551.225281,"ECG,,,,,,,,,1900",0
1759848551.2272813,"ECG,,,,,,,,,1416",0
1759848551.2292821,"ECG,,,,,,,,,1258",0
1759848551.2312808,"ECG,,,,,,,,,1480",0
1759848551.2332814,"ECG,,,,,,,,,2032",0
1759848551.2402816,"IMU,-0.016,-0.101,0.874,1.391,0.835,2.643,89.811,-45.013,349.406",0
1759848551.2412813,"ECG,,,,,,,,,3304",0
1759848551.2412813,"ECG,,,,,,,,,3288",0
1759848551.2422822,"ECG,,,,,,,,,3262",0
1759848551.2422822,"ECG,,,,,,,,,3117",0
1759848551.2432811,"ECG,,,,,,,,,2552",0
1759848551.2452805,"ECG,,,,,,,,,1896",0
1759848551.2472808,"ECG,,,,,,,,,1399",0
1759848551.2492797,"ECG,,,,,,,,,1239",0
1759848551.2512798,"ECG,,,,,,,,,1454",0
1759848551.25328,"ECG,,,,,,,,,2023",0
1759848551.2612805,"IMU,-0.016,-0.101,0.874,1.322,1.183,3.130,89.811,-45.013,349.351",0
1759848551.2612805,"ECG,,,,,,,,,3290",0
1759848551.262281,"ECG,,,,,,,,,3273",0
1759848551.262281,"ECG,,,,,,,,,3248",0
1759848551.2632802,"ECG,,,,,,,,,3100",0
1759848551.2642808,"ECG,,,,,,,,,2539",0
1759848551.2652805,"ECG,,,,,,,,,1896",0
1759848551.2672799,"ECG,,,,,,,,,1403",0
1759848551.26928,"ECG,,,,,,,,,1244",0
1759848551.27128,"ECG,,,,,,,,,1466",0
1759848551.2792802,"ECG,,,,,,,,,2025",0
1759848551.2812812,"IMU,-0.016,-0.101,0.877,1.600,1.043,3.130,89.810,-45.013,349.351",0
1759848551.2812812,"ECG,,,,,,,,,3277",0
1759848551.2822838,"ECG,,,,,,,,,3257",0
1759848551.2822838,"ECG,,,,,,,,,3240",0
1759848551.2832818,"ECG,,,,,,,,,3086",0
1759848551.2842824,"ECG,,,,,,,,,2523",0
1759848551.2852812,"ECG,,,,,,,,,1866",0
1759848551.2872825,"ECG,,,,,,,,,1373",0
1759848551.2892818,"ECG,,,,,,,,,1213",0
1759848551.291282,"ECG,,,,,,,,,1438",0
1759848551.2932823,"ECG,,,,,,,,,2012",0
1759848551.300282,"IMU,-0.020,-0.101,0.874,1.252,1.043,2.852,89.811,-45.012,349.351",0
1759848551.3012812,"ECG,,,,,,,,,3263",0
1759848551.3022842,"ECG,,,,,,,,,3244",0
1759848551.3022842,"ECG,,,,,,,,,3228",0
1759848551.3032815,"ECG,,,,,,,,,3084",0
1759848551.3042836,"ECG,,,,,,,,,2523",0
1759848551.305282,"ECG,,,,,,,,,1872",0
1759848551.3072805,"ECG,,,,,,,,,1386",0
1759848551.3092818,"ECG,,,,,,,,,1229",0
1759848551.3112805,"ECG,,,,,,,,,1464",0
1759848551.31328,"ECG,,,,,,,,,2031",0
1759848551.3202803,"IMU,-0.020,-0.097,0.874,1.322,0.974,3.200,89.811,-45.012,349.351",0
1759848551.3212798,"ECG,,,,,,,,,3288",0
1759848551.3222814,"ECG,,,,,,,,,3261",0
1759848551.3222814,"ECG,,,,,,,,,3244",0
1759848551.3232803,"ECG,,,,,,,,,3084",0
1759848551.3232803,"ECG,,,,,,,,,2508",0
1759848551.3252804,"ECG,,,,,,,,,1855",0
1759848551.3272798,"ECG,,,,,,,,,1385",0
1759848551.3292797,"ECG,,,,,,,,,1232",0
1759848551.3312798,"ECG,,,,,,,,,1470",0
1759848551.33328,"ECG,,,,,,,,,2058",0
1759848551.3402803,"IMU,-0.020,-0.101,0.874,1.043,1.043,2.852,89.811,-45.012,349.351",0
1759848551.3412802,"ECG,,,,,,,,,3279",0
1759848551.3422809,"ECG,,,,,,,,,3263",0
1759848551.3422809,"ECG,,,,,,,,,3244",0
1759848551.3432803,"ECG,,,,,,,,,3087",0
1759848551.3432803,"ECG,,,,,,,,,2521",0
1759848551.3452804,"ECG,,,,,,,,,1866",0
1759848551.3472795,"ECG,,,,,,,,,1384",0
1759848551.34928,"ECG,,,,,,,,,1227",0
1759848551.3512805,"ECG,,,,,,,,,1468",0
1759848551.3532798,"ECG,,,,,,,,,2046",0
1759848551.36028,"IMU,-0.020,-0.101,0.870,1.391,1.113,2.991,89.812,-45.012,349.438",0
1759848551.3612797,"ECG,,,,,,,,,3278",0
1759848551.3612797,"ECG,,,,,,,,,3260",0
1759848551.3622806,"ECG,,,,,,,,,3240",0
1759848551.3632796,"ECG,,,,,,,,,3083",0
1759848551.3632796,"ECG,,,,,,,,,2522",0
1759848551.3652802,"ECG,,,,,,,,,1871",0
1759848551.3672814,"ECG,,,,,,,,,1401",0
1759848551.3692799,"ECG,,,,,,,,,1247",0
1759848551.3712802,"ECG,,,,,,,,,1486",0
1759848551.3732805,"ECG,,,,,,,,,2064",0
1759848551.3802803,"IMU,-0.012,-0.101,0.866,1.530,0.696,3.339,89.812,-45.013,349.036",0
1759848551.3812797,"ECG,,,,,,,,,3293",0
1759848551.3822813,"ECG,,,,,,,,,3273",0
1759848551.3822813,"ECG,,,,,,,,,3256",0
1759848551.383281,"ECG,,,,,,,,,3098",0
1759848551.383281,"ECG,,,,,,,,,2524",0
1759848551.3852806,"ECG,,,,,,,,,1881",0
1759848551.3872802,"ECG,,,,,,,,,1403",0
1759848551.38928,"ECG,,,,,,,,,1245",0
1759848551.39128,"ECG,,,,,,,,,1482",0
1759848551.3932803,"ECG,,,,,,,,,2058",0
1759848551.4002798,"IMU,-0.020,-0.097,0.874,1.252,1.183,2.783,89.811,-45.012,349.081",0
1759848551.4012797,"ECG,,,,,,,,,3290",0
1759848551.4022794,"ECG,,,,,,,,,3263",0
1759848551.4022794,"ECG,,,,,,,,,3246",0
1759848551.4032793,"ECG,,,,,,,,,3088",0
1759848551.4042797,"ECG,,,,,,,,,2538",0
1759848551.4052792,"ECG,,,,,,,,,1899",0
1759848551.40728,"ECG,,,,,,,,,1434",0
1759848551.4092796,"ECG,,,,,,,,,1288",0
1759848551.4112797,"ECG,,,,,,,,,1516",0
1759848551.4132805,"ECG,,,,,,,,,2088",0
1759848551.4202793,"IMU,-0.016,-0.105,0.874,1.322,0.765,3.130,89.811,-45.013,349.189",0
1759848551.4212797,"ECG,,,,,,,,,3289",0
1759848551.4212797,"ECG,,,,,,,,,3262",0
1759848551.4222794,"ECG,,,,,,,,,3246",0
1759848551.4222794,"ECG,,,,,,,,,3086",0
1759848551.4232795,"ECG,,,,,,,,,2521",0
1759848551.4252794,"ECG,,,,,,,,,1881",0
1759848551.427285,"ECG,,,,,,,,,1416",0
1759848551.4292805,"ECG,,,,,,,,,1276",0
1759848551.4312797,"ECG,,,,,,,,,1529",0
1759848551.4332795,"ECG,,,,,,,,,2103",0
1759848551.44028,"IMU,-0.016,-0.097,0.870,1.391,0.765,2.991,89.812,-45.012,348.743",0
1759848551.4412806,"ECG,,,,,,,,,3276",0
1759848551.4412806,"ECG,,,,,,,,,3258",0
1759848551.44228,"ECG,,,,,,,,,3238",0
1759848551.44228,"ECG,,,,,,,,,3070",0
1759848551.44328,"ECG,,,,,,,,,2494",0
1759848551.4452884,"ECG,,,,,,,,,1849",0
1759848551.4472818,"ECG,,,,,,,,,1375",0
1759848551.44928,"ECG,,,,,,,,,1242",0
1759848551.4512799,"ECG,,,,,,,,,1497",0
1759848551.45328,"ECG,,,,,,,,,2087",0
1759848551.4602802,"IMU,-0.020,-0.101,0.877,1.461,0.974,2.922,89.810,-45.012,349.102",0
1759848551.4612813,"ECG,,,,,,,,,3289",0
1759848551.4612813,"ECG,,,,,,,,,3261",0
1759848551.4622808,"ECG,,,,,,,,,3243",0
1759848551.4622808,"ECG,,,,,,,,,3084",0
1759848551.4632802,"ECG,,,,,,,,,2519",0
1759848551.4652798,"ECG,,,,,,,,,1870",0
1759848551.4672806,"ECG,,,,,,,,,1402",0
1759848551.4692802,"ECG,,,,,,,,,1257",0
1759848551.47128,"ECG,,,,,,,,,1501",0
1759848551.47328,"ECG,,,,,,,,,2077",0
1759848551.4802809,"IMU,-0.016,-0.105,0.874,1.391,0.557,3.130,89.811,-45.013,349.102",0
1759848551.48128,"ECG,,,,,,,,,3264",0
1759848551.48128,"ECG,,,,,,,,,3244",0
1759848551.48228,"ECG,,,,,,,,,3227",0
1759848551.48228,"ECG,,,,,,,,,3067",0
1759848551.4832804,"ECG,,,,,,,,,2489",0
1759848551.4852798,"ECG,,,,,,,,,1848",0
1759848551.4872813,"ECG,,,,,,,,,1372",0
1759848551.48928,"ECG,,,,,,,,,1225",0
1759848551.4912813,"ECG,,,,,,,,,1467",0
1759848551.49328,"ECG,,,,,,,,,2044",0
1759848551.5002801,"IMU,-0.016,-0.101,0.874,1.252,0.835,2.991,89.812,-45.012,349.102",0
1759848551.5012803,"ECG,,,,,,,,,3272",0
1759848551.5012803,"ECG,,,,,,,,,3245",0
1759848551.5022812,"ECG,,,,,,,,,3226",0
1759848551.5022812,"ECG,,,,,,,,,3067",0
1759848551.50328,"ECG,,,,,,,,,2503",0
1759848551.5052812,"ECG,,,,,,,,,1850",0
1759848551.5072823,"ECG,,,,,,,,,1384",0
1759848551.5092802,"ECG,,,,,,,,,1240",0
1759848551.5112815,"ECG,,,,,,,,,1483",0
1759848551.51328,"ECG,,,,,,,,,2061",0
1759848551.5202801,"IMU,-0.020,-0.105,0.870,1.322,0.835,2.643,89.810,-45.012,349.102",0
1759848551.52128,"ECG,,,,,,,,,3271",0
1759848551.52128,"ECG,,,,,,,,,3244",0
1759848551.522382,"ECG,,,,,,,,,3228",0
1759848551.522382,"ECG,,,,,,,,,3066",0
1759848551.5232825,"ECG,,,,,,,,,2495",0
1759848551.5252812,"ECG,,,,,,,,,1851",0
1759848551.52728,"ECG,,,,,,,,,1384",0
1759848551.5292802,"ECG,,,,,,,,,1242",0
1759848551.53128,"ECG,,,,,,,,,1495",0
1759848551.5332794,"ECG,,,,,,,,,2087",0
1759848551.540281,"IMU,-0.020,-0.097,0.877,1.183,0.974,3.130,89.810,-45.014,349.102",0
1759848551.541281,"ECG,,,,,,,,,3262",0
1759848551.541281,"ECG,,,,,,,,,3242",0
1759848551.5422802,"ECG,,,,,,,,,3215",0
1759848551.5422802,"ECG,,,,,,,,,3051",0
1759848551.5432801,"ECG,,,,,,,,,2463",0
1759848551.5452812,"ECG,,,,,,,,,1817",0
1759848551.54728,"ECG,,,,,,,,,1356",0
1759848551.549281,"ECG,,,,,,,,,1226",0
1759848551.55128,"ECG,,,,,,,,,1481",0
1759848551.5532892,"ECG,,,,,,,,,2064",0
1759848551.5602803,"IMU,-0.016,-0.097,0.877,1.252,1.043,2.852,89.811,-45.012,349.287",0
1759848551.5612805,"ECG,,,,,,,,,3243",0
1759848551.5612805,"ECG,,,,,,,,,3224",0
1759848551.5622811,"ECG,,,,,,,,,3199",0
1759848551.5622811,"ECG,,,,,,,,,3036",0
1759848551.563282,"ECG,,,,,,,,,2446",0
1759848551.5662813,"ECG,,,,,,,,,1804",0
1759848551.5672836,"ECG,,,,,,,,,1353",0
1759848551.5692813,"ECG,,,,,,,,,1225",0
1759848551.571281,"ECG,,,,,,,,,1498",0
1759848551.5732825,"ECG,,,,,,,,,2108",0
1759848551.5802803,"IMU,-0.020,-0.101,0.874,1.252,0.974,2.922,89.810,-45.012,349.146",0
1759848551.5812805,"ECG,,,,,,,,,3292",0
1759848551.5812805,"ECG,,,,,,,,,3275",0
1759848551.5822802,"ECG,,,,,,,,,3256",0
1759848551.5822802,"ECG,,,,,,,,,3082",0
1759848551.5832827,"ECG,,,,,,,,,2491",0
1759848551.585284,"ECG,,,,,,,,,1838",0
1759848551.587281,"ECG,,,,,,,,,1371",0
1759848551.589281,"ECG,,,,,,,,,1230",0
1759848551.5912812,"ECG,,,,,,,,,1487",0
1759848551.5932808,"ECG,,,,,,,,,2089",0
1759848551.6002805,"IMU,-0.023,-0.101,0.877,1.391,0.835,2.922,89.810,-45.013,349.123",0
1759848551.60128,"ECG,,,,,,,,,3278",0
1759848551.60128,"ECG,,,,,,,,,3257",0
1759848551.6022801,"ECG,,,,,,,,,3240",0
1759848551.6022801,"ECG,,,,,,,,,3068",0
1759848551.6032846,"ECG,,,,,,,,,2479",0
1759848551.6052842,"ECG,,,,,,,,,1837",0
1759848551.6072795,"ECG,,,,,,,,,1386",0
1759848551.6092794,"ECG,,,,,,,,,1256",0
1759848551.6112797,"ECG,,,,,,,,,1516",0
1759848551.6132839,"ECG,,,,,,,,,2105",0
1759848551.6202831,"IMU,-0.020,-0.101,0.870,1.391,0.904,2.643,89.811,-45.013,348.835",0
1759848551.6212807,"ECG,,,,,,,,,3277",0
1759848551.6212807,"ECG,,,,,,,,,3257",0
1759848551.6222842,"ECG,,,,,,,,,3232",0
1759848551.6222842,"ECG,,,,,,,,,3068",0
1759848551.6232812,"ECG,,,,,,,,,2493",0
1759848551.625281,"ECG,,,,,,,,,1865",0
1759848551.627281,"ECG,,,,,,,,,1407",0
1759848551.6292813,"ECG,,,,,,,,,1276",0
1759848551.6312807,"ECG,,,,,,,,,1545",0
1759848551.6332803,"ECG,,,,,,,,,2137",0
1759848551.640282,"IMU,-0.016,-0.101,0.881,1.252,1.113,2.783,89.812,-45.013,349.397",0
1759848551.6412804,"ECG,,,,,,,,,3290",0
1759848551.6412804,"ECG,,,,,,,,,3260",0
1759848551.6422846,"ECG,,,,,,,,,3243",0
1759848551.6422846,"ECG,,,,,,,,,3081",0
1759848551.6432807,"ECG,,,,,,,,,2491",0
1759848551.6452806,"ECG,,,,,,,,,1840",0
1759848551.6472795,"ECG,,,,,,,,,1387",0
1759848551.6492789,"ECG,,,,,,,,,1261",0
1759848551.6552794,"ECG,,,,,,,,,2984",0
1759848551.6622818,"IMU,-0.016,-0.097,0.874,1.600,0.904,3.061,89.811,-45.012,349.365",0
1759848551.6632795,"ECG,,,,,,,,,2860",0
1759848551.6632795,"ECG,,,,,,,,,2811",0
1759848551.6642807,"ECG,,,,,,,,,2774",0
1759848551.6642807,"ECG,,,,,,,,,2731",0
1759848551.6652794,"ECG,,,,,,,,,2696",0
1759848551.6652794,"ECG,,,,,,,,,2463",0
1759848551.6662807,"ECG,,,,,,,,,1818",0
1759848551.6672802,"ECG,,,,,,,,,1371",0
1759848551.6692796,"ECG,,,,,,,,,1258",0
1759848551.6712801,"ECG,,,,,,,,,1532",0
1759848551.67328,"ECG,,,,,,,,,2126",0
1759848551.6752803,"ECG,,,,,,,,,2763",0
1759848551.6812806,"IMU,-0.016,-0.097,0.874,1.322,0.974,3.061,89.811,-45.012,349.365",0
1759848551.682281,"ECG,,,,,,,,,3086",0
1759848551.682281,"ECG,,,,,,,,,3048",0
1759848551.6832795,"ECG,,,,,,,,,3014",0
1759848551.6832795,"ECG,,,,,,,,,2495",0
1759848551.6852794,"ECG,,,,,,,,,1851",0
1759848551.6872802,"ECG,,,,,,,,,1399",0
1759848551.6892798,"ECG,,,,,,,,,1262",0
1759848551.6912801,"ECG,,,,,,,,,1528",0
1759848551.6932797,"ECG,,,,,,,,,2109",0
1759848551.6952796,"ECG,,,,,,,,,2733",0
1759848551.7012796,"IMU,-0.023,-0.101,0.870,1.391,0.835,2.783,89.812,-45.012,349.365",0
1759848551.7022803,"ECG,,,,,,,,,3034",0
1759848551.7022803,"ECG,,,,,,,,,3000",0
1759848551.7032812,"ECG,,,,,,,,,2968",0
1759848551.7032812,"ECG,,,,,,,,,2444",0
1759848551.705281,"ECG,,,,,,,,,1803",0
1759848551.70728,"ECG,,,,,,,,,1366",0
1759848551.709279,"ECG,,,,,,,,,1240",0
1759848551.7112792,"ECG,,,,,,,,,1513",0
1759848551.7132804,"ECG,,,,,,,,,2108",0
1759848551.7152796,"ECG,,,,,,,,,2749",0
1759848551.7212827,"IMU,-0.016,-0.101,0.874,1.322,0.696,2.783,89.811,-45.013,349.365",0
1759848551.7222846,"ECG,,,,,,,,,3051",0
1759848551.7222846,"ECG,,,,,,,,,3016",0
1759848551.7232826,"ECG,,,,,,,,,2985",0
1759848551.7232826,"ECG,,,,,,,,,2457",0
1759848551.7252805,"ECG,,,,,,,,,1821",0
1759848551.7272813,"ECG,,,,,,,,,1374",0
1759848551.7292805,"ECG,,,,,,,,,1256",0
1759848551.7312806,"ECG,,,,,,,,,1519",0
1759848551.7332819,"ECG,,,,,,,,,2110",0
1759848551.7412798,"IMU,-0.020,-0.101,0.870,1.461,0.974,3.130,89.812,-45.012,349.365",0
1759848551.7422798,"ECG,,,,,,,,,3070",0
1759848551.7422798,"ECG,,,,,,,,,3035",0
1759848551.7432806,"ECG,,,,,,,,,3001",0
1759848551.7432806,"ECG,,,,,,,,,2969",0
1759848551.7442796,"ECG,,,,,,,,,2444",0
1759848551.7452807,"ECG,,,,,,,,,1802",0
1759848551.7472816,"ECG,,,,,,,,,1344",0
1759848551.7492795,"ECG,,,,,,,,,1226",0
1759848551.7512796,"ECG,,,,,,,,,1498",0
1759848551.7532797,"ECG,,,,,,,,,2089",0
1759848551.7552793,"ECG,,,,,,,,,2715",0
1759848551.761281,"IMU,-0.016,-0.101,0.877,1.113,1.252,2.922,89.810,-45.013,348.801",0
1759848551.7622805,"ECG,,,,,,,,,3005",0
1759848551.7622805,"ECG,,,,,,,,,2971",0
1759848551.76328,"ECG,,,,,,,,,2940",0
1759848551.76328,"ECG,,,,,,,,,2424",0
1759848551.76528,"ECG,,,,,,,,,1791",0
1759848551.7672808,"ECG,,,,,,,,,1368",0
1759848551.7692802,"ECG,,,,,,,,,1262",0
1759848551.77128,"ECG,,,,,,,,,1551",0
1759848551.77328,"ECG,,,,,,,,,2154",0
1759848551.775282,"ECG,,,,,,,,,2777",0
1759848551.7812803,"IMU,-0.020,-0.097,0.877,1.183,1.113,3.061,89.810,-45.012,349.646",0
1759848551.7822814,"ECG,,,,,,,,,3039",0
1759848551.7822814,"ECG,,,,,,,,,3004",0
1759848551.7832801,"ECG,,,,,,,,,2972",0
1759848551.7832801,"ECG,,,,,,,,,2431",0
1759848551.78528,"ECG,,,,,,,,,1792",0
1759848551.7872806,"ECG,,,,,,,,,1352",0
1759848551.7892811,"ECG,,,,,,,,,1230",0
1759848551.79128,"ECG,,,,,,,,,1514",0
1759848551.79328,"ECG,,,,,,,,,2121",0
1759848551.7952795,"ECG,,,,,,,,,2748",0
1759848551.8012805,"IMU,-0.016,-0.101,0.874,1.113,1.322,3.130,89.811,-45.013,349.222",0
1759848551.80228,"ECG,,,,,,,,,3018",0
1759848551.80228,"ECG,,,,,,,,,2984",0
1759848551.8032808,"ECG,,,,,,,,,2952",0
1759848551.8032808,"ECG,,,,,,,,,2426",0
1759848551.8052797,"ECG,,,,,,,,,1787",0
1759848551.80728,"ECG,,,,,,,,,1356",0
1759848551.8092818,"ECG,,,,,,,,,1241",0
1759848551.8112798,"ECG,,,,,,,,,1529",0
1759848551.8132834,"ECG,,,,,,,,,2136",0
1759848551.8212795,"IMU,-0.016,-0.097,0.874,1.322,1.322,2.783,89.811,-45.012,349.462",0
1759848551.8222802,"ECG,,,,,,,,,3101",0
1759848551.8222802,"ECG,,,,,,,,,3066",0
1759848551.8232808,"ECG,,,,,,,,,3033",0
1759848551.8232808,"ECG,,,,,,,,,3000",0
1759848551.824281,"ECG,,,,,,,,,2457",0
1759848551.82528,"ECG,,,,,,,,,1805",0
1759848551.8272798,"ECG,,,,,,,,,1368",0
1759848551.8292832,"ECG,,,,,,,,,1256",0
1759848551.831281,"ECG,,,,,,,,,1533",0
1759848551.8332806,"ECG,,,,,,,,,2141",0
1759848551.8352804,"ECG,,,,,,,,,2781",0
1759848551.8412802,"IMU,-0.016,-0.105,0.874,1.461,1.322,3.130,89.811,-45.013,349.222",0
1759848551.842282,"ECG,,,,,,,,,3033",0
1759848551.842282,"ECG,,,,,,,,,2989",0
1759848551.8432798,"ECG,,,,,,,,,2958",0
1759848551.8432798,"ECG,,,,,,,,,2415",0
1759848551.8452802,"ECG,,,,,,,,,1770",0
1759848551.8472798,"ECG,,,,,,,,,1334",0
1759848551.84928,"ECG,,,,,,,,,1227",0
1759848551.851281,"ECG,,,,,,,,,1533",0
1759848551.85328,"ECG,,,,,,,,,2153",0
1759848551.8552802,"ECG,,,,,,,,,2792",0
1759848551.861281,"IMU,-0.016,-0.097,0.874,1.113,1.461,3.061,89.811,-45.012,349.222",0
1759848551.8622804,"ECG,,,,,,,,,3065",0
1759848551.8622804,"ECG,,,,,,,,,3021",0
1759848551.86328,"ECG,,,,,,,,,2991",0
1759848551.86328,"ECG,,,,,,,,,2463",0
1759848551.8652818,"ECG,,,,,,,,,1835",0
1759848551.8672802,"ECG,,,,,,,,,1405",0
1759848551.8692818,"ECG,,,,,,,,,1305",0
1759848551.8712804,"ECG,,,,,,,,,1599",0
1759848551.8732803,"ECG,,,,,,,,,2202",0
1759848551.8752828,"ECG,,,,,,,,,2814",0
1759848551.8812804,"IMU,-0.016,-0.097,0.874,1.113,1.113,2.783,89.811,-45.012,349.222",0
1759848551.88228,"ECG,,,,,,,,,3051",0
1759848551.88228,"ECG,,,,,,,,,3016",0
1759848551.88328,"ECG,,,,,,,,,2983",0
1759848551.88328,"ECG,,,,,,,,,2448",0
1759848551.88528,"ECG,,,,,,,,,1820",0
1759848551.8872802,"ECG,,,,,,,,,1389",0
1759848551.8892803,"ECG,,,,,,,,,1273",0
1759848551.8912818,"ECG,,,,,,,,,1560",0
1759848551.8932812,"ECG,,,,,,,,,2143",0
1759848551.9012809,"IMU,-0.012,-0.101,0.870,1.600,1.252,3.061,89.812,-45.013,349.222",0
1759848551.9022803,"ECG,,,,,,,,,3031",0
1759848551.9022803,"ECG,,,,,,,,,2990",0
1759848551.9032824,"ECG,,,,,,,,,2959",0
1759848551.9032824,"ECG,,,,,,,,,2926",0
1759848551.9042807,"ECG,,,,,,,,,2406",0
1759848551.90528,"ECG,,,,,,,,,1774",0
1759848551.9072828,"ECG,,,,,,,,,1369",0
1759848551.9092803,"ECG,,,,,,,,,1278",0
1759848551.9112809,"ECG,,,,,,,,,1592",0
1759848551.9133031,"ECG,,,,,,,,,2204",0
1759848551.9153872,"ECG,,,,,,,,,2841",0
1759848551.9213412,"IMU,-0.020,-0.101,0.874,1.461,1.113,2.922,89.811,-45.012,349.222",0
1759848551.9223409,"ECG,,,,,,,,,3070",0
1759848551.9224927,"ECG,,,,,,,,,3032",0
1759848551.923343,"ECG,,,,,,,,,3002",0
1759848551.9243422,"ECG,,,,,,,,,2457",0
1759848551.925341,"ECG,,,,,,,,,1815",0
1759848551.92734,"ECG,,,,,,,,,1384",0
1759848551.9293416,"ECG,,,,,,,,,1277",0
1759848551.9313414,"ECG,,,,,,,,,1579",0
1759848551.933341,"ECG,,,,,,,,,2184",0
1759848551.9353416,"ECG,,,,,,,,,2798",0
1759848551.9413419,"IMU,-0.016,-0.101,0.874,1.461,1.113,2.922,89.811,-45.013,349.430",0
1759848551.942341,"ECG,,,,,,,,,3004",0
1759848551.942341,"ECG,,,,,,,,,2968",0
1759848551.9433417,"ECG,,,,,,,,,2934",0
1759848551.9433417,"ECG,,,,,,,,,2392",0
1759848551.9453409,"ECG,,,,,,,,,1752",0
1759848551.947391,"ECG,,,,,,,,,1324",0
1759848551.9491236,"ECG,,,,,,,,,1228",0
1759848551.951123,"ECG,,,,,,,,,1544",0
1759848551.9531243,"ECG,,,,,,,,,2157",0
1759848551.9551232,"ECG,,,,,,,,,2799",0
1759848551.9611232,"IMU,-0.020,-0.097,0.874,1.391,1.043,3.200,89.811,-45.012,349.526",0
1759848551.9621239,"ECG,,,,,,,,,3039",0
1759848551.9621239,"ECG,,,,,,,,,3001",0
1759848551.9631236,"ECG,,,,,,,,,2968",0
1759848551.9631236,"ECG,,,,,,,,,2439",0
1759848551.9651227,"ECG,,,,,,,,,1802",0
1759848551.96744,"ECG,,,,,,,,,1372",0
1759848551.9694512,"ECG,,,,,,,,,1275",0
1759848551.9713862,"ECG,,,,,,,,,1576",0
1759848551.9733963,"ECG,,,,,,,,,2174",0
1759848551.975397,"ECG,,,,,,,,,2809",0
1759848551.9814155,"IMU,-0.020,-0.105,0.874,1.113,1.252,2.922,89.811,-45.013,349.462",0
1759848551.9814155,"ECG,,,,,,,,,3023",0
1759848551.9824128,"ECG,,,,,,,,,2986",0
1759848551.9824128,"ECG,,,,,,,,,2952",0
1759848551.9834137,"ECG,,,,,,,,,2411",0
1759848551.9854145,"ECG,,,,,,,,,1769",0
1759848551.9871047,"ECG,,,,,,,,,1341",0
1759848551.9891155,"ECG,,,,,,,,,1242",0
1759848551.9911163,"ECG,,,,,,,,,1544",0
1759848551.9931154,"ECG,,,,,,,,,2143",0
1759848551.9951155,"ECG,,,,,,,,,2777",0
1759848552.001117,"IMU,-0.016,-0.105,0.877,1.322,1.113,2.922,89.810,-45.013,350.064",0
1759848552.0021162,"ECG,,,,,,,,,2988",0
1759848552.0021162,"ECG,,,,,,,,,2943",0
1759848552.0031152,"ECG,,,,,,,,,2909",0
1759848552.0031152,"ECG,,,,,,,,,2382",0
1759848552.005398,"ECG,,,,,,,,,1757",0
1759848552.0073984,"ECG,,,,,,,,,1342",0
1759848552.009136,"ECG,,,,,,,,,1246",0
1759848552.0111475,"ECG,,,,,,,,,1563",0
1759848552.0131474,"ECG,,,,,,,,,2174",0
1759848552.0211477,"IMU,-0.016,-0.101,0.866,1.391,1.183,3.130,89.812,-45.013,349.478",0
1759848552.0221481,"ECG,,,,,,,,,3048",0
1759848552.0221481,"ECG,,,,,,,,,3005",0
1759848552.023148,"ECG,,,,,,,,,2971",0
1759848552.023148,"ECG,,,,,,,,,2937",0
1759848552.0241482,"ECG,,,,,,,,,2383",0
1759848552.0251484,"ECG,,,,,,,,,1743",0
1759848552.0273187,"ECG,,,,,,,,,1323",0
1759848552.0291588,"ECG,,,,,,,,,1239",0
1759848552.0311606,"ECG,,,,,,,,,1561",0
1759848552.0334022,"ECG,,,,,,,,,2184",0
1759848552.0351605,"ECG,,,,,,,,,2814",0
1759848552.041405,"IMU,-0.016,-0.101,0.870,1.600,1.252,2.922,89.812,-45.013,349.412",0
1759848552.041405,"ECG,,,,,,,,,3015",0
1759848552.042404,"ECG,,,,,,,,,2971",0
1759848552.042404,"ECG,,,,,,,,,2938",0
1759848552.043406,"ECG,,,,,,,,,2394",0
1759848552.0454056,"ECG,,,,,,,,,1742",0
1759848552.0474057,"ECG,,,,,,,,,1324",0
1759848552.0494058,"ECG,,,,,,,,,1229",0
1759848552.0514054,"ECG,,,,,,,,,1562",0
1759848552.053406,"ECG,,,,,,,,,2187",0
1759848552.0613332,"IMU,-0.012,-0.101,0.870,1.530,1.322,3.270,89.812,-45.013,349.412",0
1759848552.0623343,"ECG,,,,,,,,,3054",0
1759848552.0623343,"ECG,,,,,,,,,3017",0
1759848552.0633326,"ECG,,,,,,,,,2985",0
1759848552.0633326,"ECG,,,,,,,,,2943",0
1759848552.0643327,"ECG,,,,,,,,,2409",0
1759848552.065332,"ECG,,,,,,,,,1783",0
1759848552.0673323,"ECG,,,,,,,,,1374",0
1759848552.0694065,"ECG,,,,,,,,,1290",0
1759848552.0714166,"ECG,,,,,,,,,1599",0
1759848552.0734172,"ECG,,,,,,,,,2216",0
1759848552.0754166,"ECG,,,,,,,,,2843",0
1759848552.0814178,"IMU,-0.016,-0.097,0.874,1.252,1.600,3.061,89.811,-45.012,349.412",0
1759848552.0814178,"ECG,,,,,,,,,3036",0
1759848552.082417,"ECG,,,,,,,,,2991",0
1759848552.082417,"ECG,,,,,,,,,2955",0
1759848552.0834165,"ECG,,,,,,,,,2415",0
1759848552.0854173,"ECG,,,,,,,,,1786",0
1759848552.0874183,"ECG,,,,,,,,,1368",0
1759848552.0894172,"ECG,,,,,,,,,1271",0
1759848552.0914168,"ECG,,,,,,,,,1579",0
1759848552.0934095,"ECG,,,,,,,,,2191",0
1759848552.0954125,"ECG,,,,,,,,,2812",0
1759848552.1014338,"IMU,-0.012,-0.101,0.881,1.530,1.530,2.852,89.809,-45.013,349.412",0
1759848552.1014338,"ECG,,,,,,,,,3015",0
1759848552.102433,"ECG,,,,,,,,,2969",0
1759848552.102433,"ECG,,,,,,,,,2936",0
1759848552.103434,"ECG,,,,,,,,,2397",0
1759848552.1051607,"ECG,,,,,,,,,1769",0
1759848552.107165,"ECG,,,,,,,,,1369",0
1759848552.1091654,"ECG,,,,,,,,,1287",0
1759848552.1111836,"ECG,,,,,,,,,1610",0
1759848552.1131952,"ECG,,,,,,,,,2222",0
1759848552.1151824,"ECG,,,,,,,,,2844",0
1759848552.1211822,"IMU,-0.016,-0.097,0.877,1.461,1.183,3.130,89.810,-45.013,349.412",0
1759848552.1221824,"ECG,,,,,,,,,3019",0
1759848552.1221824,"ECG,,,,,,,,,2973",0
1759848552.1232696,"ECG,,,,,,,,,2938",0
1759848552.1232696,"ECG,,,,,,,,,2394",0
1759848552.1251817,"ECG,,,,,,,,,1759",0
1759848552.1274145,"ECG,,,,,,,,,1356",0
1759848552.1291862,"ECG,,,,,,,,,1273",0
1759848552.1311905,"ECG,,,,,,,,,1594",0
1759848552.1331909,"ECG,,,,,,,,,2206",0
1759848552.135191,"ECG,,,,,,,,,2824",0
1759848552.141192,"IMU,-0.016,-0.097,0.877,1.461,1.113,2.852,89.811,-45.013,349.470",0
1759848552.1421914,"ECG,,,,,,,,,2986",0
1759848552.1421914,"ECG,,,,,,,,,2939",0
1759848552.1431923,"ECG,,,,,,,,,2904",0
1759848552.1431923,"ECG,,,,,,,,,2365",0
1759848552.1451907,"ECG,,,,,,,,,1737",0
1759848552.1474164,"ECG,,,,,,,,,1341",0
1759848552.1492128,"ECG,,,,,,,,,1275",0
1759848552.151224,"ECG,,,,,,,,,1612",0
1759848552.1532238,"ECG,,,,,,,,,2232",0
1759848552.1552236,"ECG,,,,,,,,,2846",0
1759848552.1612241,"IMU,-0.020,-0.101,0.877,1.670,0.765,2.991,89.810,-45.012,349.167",0
1759848552.1622245,"ECG,,,,,,,,,3018",0
1759848552.1622245,"ECG,,,,,,,,,2973",0
1759848552.1632252,"ECG,,,,,,,,,2939",0
1759848552.1632252,"ECG,,,,,,,,,2395",0
1759848552.1652236,"ECG,,,,,,,,,1771",0
1759848552.1673353,"ECG,,,,,,,,,1372",0
1759848552.1694703,"ECG,,,,,,,,,1293",0
1759848552.171336,"ECG,,,,,,,,,1623",0
1759848552.1733356,"ECG,,,,,,,,,2232",0
1759848552.1753454,"ECG,,,,,,,,,2841",0
1759848552.1813467,"IMU,-0.020,-0.101,0.877,1.670,0.835,3.270,89.809,-45.012,349.494",0
1759848552.1823466,"ECG,,,,,,,,,2983",0
1759848552.1823466,"ECG,,,,,,,,,2939",0
1759848552.1833453,"ECG,,,,,,,,,2904",0
1759848552.1833453,"ECG,,,,,,,,,2360",0
1759848552.185346,"ECG,,,,,,,,,1737",0
1759848552.1873462,"ECG,,,,,,,,,1353",0
1759848552.1893451,"ECG,,,,,,,,,1290",0
1759848552.1913457,"ECG,,,,,,,,,1642",0
1759848552.193422,"ECG,,,,,,,,,2271",0
1759848552.195432,"ECG,,,,,,,,,2890",0
1759848552.201434,"IMU,-0.016,-0.101,0.874,1.252,1.322,2.713,89.810,-45.013,349.102",0
1759848552.2024324,"ECG,,,,,,,,,3032",0
1759848552.2024324,"ECG,,,,,,,,,2987",0
1759848552.203432,"ECG,,,,,,,,,2953",0
1759848552.203432,"ECG,,,,,,,,,2412",0
1759848552.2054334,"ECG,,,,,,,,,1787",0
1759848552.207433,"ECG,,,,,,,,,1388",0
1759848552.208433,"ECG,,,,,,,,,1310",0
1759848552.2114325,"ECG,,,,,,,,,1641",0
1759848552.2129943,"ECG,,,,,,,,,2253",0
1759848552.2210176,"IMU,-0.020,-0.101,0.870,1.461,0.904,3.061,89.812,-45.012,349.189",0
1759848552.2220182,"ECG,,,,,,,,,3035",0
1759848552.2220182,"ECG,,,,,,,,,2999",0
1759848552.2230182,"ECG,,,,,,,,,2957",0
1759848552.2230182,"ECG,,,,,,,,,2923",0
1759848552.2240186,"ECG,,,,,,,,,2366",0
1759848552.2250178,"ECG,,,,,,,,,1737",0
1759848552.2270176,"ECG,,,,,,,,,1324",0
1759848552.229018,"ECG,,,,,,,,,1245",0
1759848552.2310178,"ECG,,,,,,,,,1577",0
1759848552.2330184,"ECG,,,,,,,,,2199",0
1759848552.2350194,"ECG,,,,,,,,,2809",0
1759848552.2410183,"IMU,-0.020,-0.101,0.877,1.461,1.113,3.130,89.810,-45.012,349.189",0
1759848552.242018,"ECG,,,,,,,,,2955",0
1759848552.242018,"ECG,,,,,,,,,2919",0
1759848552.2430174,"ECG,,,,,,,,,2875",0
1759848552.2430174,"ECG,,,,,,,,,2332",0
1759848552.245021,"ECG,,,,,,,,,1705",0
1759848552.2470193,"ECG,,,,,,,,,1309",0
1759848552.249019,"ECG,,,,,,,,,1240",0
1759848552.251021,"ECG,,,,,,,,,1582",0
1759848552.2530217,"ECG,,,,,,,,,2216",0
1759848552.2550173,"ECG,,,,,,,,,2831",0
1759848552.2614326,"IMU,-0.023,-0.097,0.874,1.113,1.252,2.643,89.810,-45.012,349.189",0
1759848552.2614326,"ECG,,,,,,,,,2975",0
1759848552.262432,"ECG,,,,,,,,,2927",0
1759848552.2634337,"ECG,,,,,,,,,2893",0
1759848552.2634337,"ECG,,,,,,,,,2350",0
1759848552.2644324,"ECG,,,,,,,,,1724",0
1759848552.2664385,"ECG,,,,,,,,,1340",0
1759848552.2684505,"ECG,,,,,,,,,1278",0
1759848552.2704515,"ECG,,,,,,,,,1616",0
1759848552.2724516,"ECG,,,,,,,,,2238",0
1759848552.2744515,"ECG,,,,,,,,,2842",0
1759848552.281453,"IMU,-0.016,-0.105,0.877,1.183,1.391,3.061,89.810,-45.012,349.189",0
1759848552.2824512,"ECG,,,,,,,,,2938",0
1759848552.2824512,"ECG,,,,,,,,,2894",0
1759848552.2834496,"ECG,,,,,,,,,2859",0
1759848552.2834496,"ECG,,,,,,,,,2312",0
1759848552.285451,"ECG,,,,,,,,,1679",0
1759848552.2864518,"ECG,,,,,,,,,1304",0
1759848552.2884502,"ECG,,,,,,,,,1242",0
1759848552.2904518,"ECG,,,,,,,,,1598",0
1759848552.2929306,"ECG,,,,,,,,,2238",0
1759848552.3014674,"IMU,-0.012,-0.101,0.870,1.322,1.113,2.922,89.811,-45.013,349.189",0
1759848552.3014674,"ECG,,,,,,,,,3037",0
1759848552.3024676,"ECG,,,,,,,,,2999",0
1759848552.3024676,"ECG,,,,,,,,,2959",0
1759848552.3034675,"ECG,,,,,,,,,2924",0
1759848552.3034675,"ECG,,,,,,,,,2365",0
1759848552.304467,"ECG,,,,,,,,,1738",0
1759848552.307007,"ECG,,,,,,,,,1352",0
1759848552.309017,"ECG,,,,,,,,,1273",0
1759848552.3110185,"ECG,,,,,,,,,1615",0
1759848552.3130167,"ECG,,,,,,,,,2254",0
1759848552.3150167,"ECG,,,,,,,,,2880",0
1759848552.3210177,"IMU,-0.020,-0.101,0.874,1.322,1.113,2.991,89.812,-45.013,349.189",0
1759848552.322018,"ECG,,,,,,,,,3004",0
1759848552.322018,"ECG,,,,,,,,,2968",0
1759848552.3230166,"ECG,,,,,,,,,2924",0
1759848552.3230166,"ECG,,,,,,,,,2367",0
1759848552.3250177,"ECG,,,,,,,,,1727",0
1759848552.3270092,"ECG,,,,,,,,,1336",0
1759848552.3289356,"ECG,,,,,,,,,1261",0
1759848552.330946,"ECG,,,,,,,,,1609",0
1759848552.3329458,"ECG,,,,,,,,,2248",0
1759848552.3349454,"ECG,,,,,,,,,2860",0
1759848552.340947,"IMU,-0.016,-0.101,0.870,1.252,1.183,3.061,89.812,-45.013,349.453",0
1759848552.3419466,"ECG,,,,,,,,,2987",0
1759848552.3429465,"ECG,,,,,,,,,2940",0
1759848552.3429465,"ECG,,,,,,,,,2906",0
1759848552.3429465,"ECG,,,,,,,,,2350",0
1759848552.3449461,"ECG,,,,,,,,,1722",0
1759848552.3469458,"ECG,,,,,,,,,1338",0
1759848552.3489459,"ECG,,,,,,,,,1277",0
1759848552.3509378,"ECG,,,,,,,,,1629",0
1759848552.352948,"ECG,,,,,,,,,2256",0
1759848552.3550184,"ECG,,,,,,,,,2874",0
1759848552.3610294,"IMU,-0.020,-0.101,0.874,1.252,0.974,2.783,89.811,-45.012,349.045",0
1759848552.3620293,"ECG,,,,,,,,,2975",0
1759848552.3620293,"ECG,,,,,,,,,2927",0
1759848552.3630285,"ECG,,,,,,,,,2892",0
1759848552.3630285,"ECG,,,,,,,,,2348",0
1759848552.3650289,"ECG,,,,,,,,,1722",0
1759848552.3670282,"ECG,,,,,,,,,1352",0
1759848552.369028,"ECG,,,,,,,,,1291",0
1759848552.3710287,"ECG,,,,,,,,,1639",0
1759848552.3730206,"ECG,,,,,,,,,2263",0
1759848552.375032,"ECG,,,,,,,,,2871",0
1759848552.3810377,"IMU,-0.016,-0.101,0.874,1.043,1.183,3.130,89.811,-45.013,349.277",0
1759848552.3820374,"ECG,,,,,,,,,2958",0
1759848552.3820374,"ECG,,,,,,,,,2920",0
1759848552.383039,"ECG,,,,,,,,,2877",0
1759848552.383039,"ECG,,,,,,,,,2330",0
1759848552.385035,"ECG,,,,,,,,,1711",0
1759848552.3870609,"ECG,,,,,,,,,1339",0
1759848552.3890612,"ECG,,,,,,,,,1292",0
1759848552.3910596,"ECG,,,,,,,,,1646",0
1759848552.3930602,"ECG,,,,,,,,,2280",0
1759848552.3950598,"ECG,,,,,,,,,2875",0
1759848552.4010599,"IMU,-0.012,-0.105,0.870,1.530,1.183,3.130,89.812,-45.014,349.319",0
1759848552.40206,"ECG,,,,,,,,,2957",0
1759848552.40206,"ECG,,,,,,,,,2920",0
1759848552.4030597,"ECG,,,,,,,,,2877",0
1759848552.4030597,"ECG,,,,,,,,,2330",0
1759848552.4050598,"ECG,,,,,,,,,1711",0
1759848552.4070208,"ECG,,,,,,,,,1342",0
1759848552.4090307,"ECG,,,,,,,,,1290",0
1759848552.4110305,"ECG,,,,,,,,,1643",0
1759848552.4130301,"ECG,,,,,,,,,2267",0
1759848552.4150305,"ECG,,,,,,,,,2874",0
1759848552.4210324,"IMU,-0.020,-0.101,0.870,1.600,0.974,2.574,89.812,-45.012,349.069",0
1759848552.4220314,"ECG,,,,,,,,,2934",0
1759848552.4230304,"ECG,,,,,,,,,2890",0
1759848552.4230304,"ECG,,,,,,,,,2847",0
1759848552.4240313,"ECG,,,,,,,,,2284",0
1759848552.4250305,"ECG,,,,,,,,,1655",0
1759848552.4270275,"ECG,,,,,,,,,1276",0
1759848552.4290373,"ECG,,,,,,,,,1229",0
1759848552.4310372,"ECG,,,,,,,,,1597",0
1759848552.4330373,"ECG,,,,,,,,,2253",0
1759848552.4350386,"ECG,,,,,,,,,2876",0
1759848552.4410555,"IMU,-0.016,-0.105,0.870,1.391,1.183,3.061,89.812,-45.013,349.069",0
1759848552.4420562,"ECG,,,,,,,,,2956",0
1759848552.4420562,"ECG,,,,,,,,,2908",0
1759848552.4430552,"ECG,,,,,,,,,2874",0
1759848552.4430552,"ECG,,,,,,,,,2313",0
1759848552.4450555,"ECG,,,,,,,,,1678",0
1759848552.44703,"ECG,,,,,,,,,1294",0
1759848552.4490404,"ECG,,,,,,,,,1243",0
1759848552.4510405,"ECG,,,,,,,,,1600",0
1759848552.45304,"ECG,,,,,,,,,2248",0
1759848552.4550395,"ECG,,,,,,,,,2861",0
1759848552.4610407,"IMU,-0.023,-0.105,0.870,1.670,1.043,3.130,89.812,-45.012,349.069",0
1759848552.4620407,"ECG,,,,,,,,,2953",0
1759848552.4620407,"ECG,,,,,,,,,2906",0
1759848552.46304,"ECG,,,,,,,,,2863",0
1759848552.46304,"ECG,,,,,,,,,2303",0
1759848552.465041,"ECG,,,,,,,,,1672",0
1759848552.4667256,"ECG,,,,,,,,,1288",0
1759848552.4687386,"ECG,,,,,,,,,1229",0
1759848552.470738,"ECG,,,,,,,,,1590",0
1759848552.4727366,"ECG,,,,,,,,,2218",0
1759848552.4817386,"IMU,-0.020,-0.101,0.874,1.252,1.043,2.574,89.811,-45.012,349.069",0
1759848552.4817386,"ECG,,,,,,,,,2936",0
1759848552.4827383,"ECG,,,,,,,,,2891",0
1759848552.4827383,"ECG,,,,,,,,,2856",0
1759848552.4837372,"ECG,,,,,,,,,2814",0
1759848552.4837372,"ECG,,,,,,,,,2269",0
1759848552.4849546,"ECG,,,,,,,,,1655",0
1759848552.486955,"ECG,,,,,,,,,1288",0
1759848552.488897,"ECG,,,,,,,,,1243",0
1759848552.4908948,"ECG,,,,,,,,,1612",0
1759848552.4928942,"ECG,,,,,,,,,2249",0
1759848552.494894,"ECG,,,,,,,,,2860",0
1759848552.5008943,"IMU,-0.020,-0.101,0.874,1.391,0.835,3.130,89.811,-45.012,349.069",0
1759848552.5018945,"ECG,,,,,,,,,2910",0
1759848552.5018945,"ECG,,,,,,,,,2872",0
1759848552.5028942,"ECG,,,,,,,,,2840",0
1759848552.5028942,"ECG,,,,,,,,,2281",0
1759848552.5048947,"ECG,,,,,,,,,1663",0
1759848552.5070403,"ECG,,,,,,,,,1309",0
1759848552.5089576,"ECG,,,,,,,,,1264",0
1759848552.5109076,"ECG,,,,,,,,,1640",0
1759848552.512928,"ECG,,,,,,,,,2282",0
1759848552.5209267,"IMU,-0.016,-0.097,0.874,1.252,0.904,2.991,89.811,-45.012,349.397",0
1759848552.5219264,"ECG,,,,,,,,,2975",0
1759848552.5219264,"ECG,,,,,,,,,2936",0
1759848552.5229263,"ECG,,,,,,,,,2894",0
1759848552.5229263,"ECG,,,,,,,,,2860",0
1759848552.5239272,"ECG,,,,,,,,,2296",0
1759848552.5249271,"ECG,,,,,,,,,1663",0
1759848552.5270104,"ECG,,,,,,,,,1303",0
1759848552.5289605,"ECG,,,,,,,,,1261",0
1759848552.5309606,"ECG,,,,,,,,,1641",0
1759848552.5329454,"ECG,,,,,,,,,2294",0
1759848552.5349452,"ECG,,,,,,,,,2908",0
1759848552.5409458,"IMU,-0.020,-0.105,0.870,1.461,1.113,2.783,89.812,-45.013,349.406",0
1759848552.5419457,"ECG,,,,,,,,,2960",0
1759848552.5419457,"ECG,,,,,,,,,2923",0
1759848552.5429454,"ECG,,,,,,,,,2878",0
1759848552.5429454,"ECG,,,,,,,,,2318",0
1759848552.5449455,"ECG,,,,,,,,,1695",0
1759848552.5469456,"ECG,,,,,,,,,1327",0
1759848552.5489628,"ECG,,,,,,,,,1279",0
1759848552.5509562,"ECG,,,,,,,,,1660",0
1759848552.5534065,"ECG,,,,,,,,,2312",0
1759848552.555406,"ECG,,,,,,,,,2920",0
1759848552.5614061,"IMU,-0.023,-0.101,0.870,1.670,0.835,3.130,89.812,-45.012,349.277",0
1759848552.5624063,"ECG,,,,,,,,,2937",0
1759848552.5624063,"ECG,,,,,,,,,2891",0
1759848552.563406,"ECG,,,,,,,,,2855",0
1759848552.563406,"ECG,,,,,,,,,2284",0
1759848552.5654063,"ECG,,,,,,,,,1657",0
1759848552.5674062,"ECG,,,,,,,,,1294",0
1759848552.5694067,"ECG,,,,,,,,,1261",0
1759848552.5714061,"ECG,,,,,,,,,1644",0
1759848552.5734086,"ECG,,,,,,,,,2287",0
1759848552.575407,"ECG,,,,,,,,,2907",0
1759848552.581425,"IMU,-0.020,-0.105,0.874,1.322,1.113,2.713,89.811,-45.013,349.421",0
1759848552.5824244,"ECG,,,,,,,,,2959",0
1759848552.5824244,"ECG,,,,,,,,,2919",0
1759848552.5834243,"ECG,,,,,,,,,2879",0
1759848552.5834243,"ECG,,,,,,,,,2316",0
1759848552.585424,"ECG,,,,,,,,,1693",0
1759848552.5870519,"ECG,,,,,,,,,1338",0
1759848552.5890613,"ECG,,,,,,,,,1305",0
1759848552.5910625,"ECG,,,,,,,,,1689",0
1759848552.5930614,"ECG,,,,,,,,,2329",0
1759848552.601063,"IMU,-0.020,-0.101,0.866,1.183,0.835,2.922,89.812,-45.012,349.607",0
1759848552.6020644,"ECG,,,,,,,,,2983",0
1759848552.6020644,"ECG,,,,,,,,,2937",0
1759848552.6030626,"ECG,,,,,,,,,2896",0
1759848552.6030626,"ECG,,,,,,,,,2861",0
1759848552.6040628,"ECG,,,,,,,,,2298",0
1759848552.6050613,"ECG,,,,,,,,,1691",0
1759848552.6070542,"ECG,,,,,,,,,1336",0
1759848552.6089754,"ECG,,,,,,,,,1294",0
1759848552.6109726,"ECG,,,,,,,,,1672",0
1759848552.613055,"ECG,,,,,,,,,2299",0
1759848552.6150658,"ECG,,,,,,,,,2891",0
1759848552.621066,"IMU,-0.008,-0.101,0.870,1.461,0.765,3.200,89.812,-45.014,349.607",0
1759848552.6221645,"ECG,,,,,,,,,2905",0
1759848552.6221645,"ECG,,,,,,,,,2857",0
1759848552.6230662,"ECG,,,,,,,,,2814",0
1759848552.6230662,"ECG,,,,,,,,,2263",0
1759848552.625066,"ECG,,,,,,,,,1658",0
1759848552.6270657,"ECG,,,,,,,,,1307",0
1759848552.6290665,"ECG,,,,,,,,,1288",0
1759848552.631066,"ECG,,,,,,,,,1659",0
1759848552.6330657,"ECG,,,,,,,,,2298",0
1759848552.6350696,"ECG,,,,,,,,,2904",0
1759848552.641077,"IMU,-0.020,-0.097,0.870,1.600,0.557,2.713,89.812,-45.012,349.607",0
1759848552.6420772,"ECG,,,,,,,,,2935",0
1759848552.6420772,"ECG,,,,,,,,,2888",0
1759848552.6430771,"ECG,,,,,,,,,2846",0
1759848552.6430771,"ECG,,,,,,,,,2287",0
1759848552.6450725,"ECG,,,,,,,,,1674",0
1759848552.6470814,"ECG,,,,,,,,,1310",0
1759848552.6490812,"ECG,,,,,,,,,1272",0
1759848552.651089,"ECG,,,,,,,,,1645",0
1759848552.653088,"ECG,,,,,,,,,2297",0
1759848552.6615057,"IMU,-0.016,-0.101,0.881,1.043,0.557,2.783,89.809,-45.013,349.607",0
1759848552.6615057,"ECG,,,,,,,,,2952",0
1759848552.6625051,"ECG,,,,,,,,,2904",0
1759848552.6625051,"ECG,,,,,,,,,2872",0
1759848552.6635053,"ECG,,,,,,,,,2828",0
1759848552.6635053,"ECG,,,,,,,,,2254",0
1759848552.6645055,"ECG,,,,,,,,,1640",0
1759848552.6665056,"ECG,,,,,,,,,1279",0
1759848552.6685054,"ECG,,,,,,,,,1256",0
1759848552.670506,"ECG,,,,,,,,,1626",0
1759848552.6725051,"ECG,,,,,,,,,2267",0
1759848552.674505,"ECG,,,,,,,,,2872",0
1759848552.6815052,"IMU,-0.016,-0.105,0.870,1.530,1.252,3.200,89.812,-45.013,349.607",0
1759848552.6815052,"ECG,,,,,,,,,2907",0
1759848552.6825047,"ECG,,,,,,,,,2860",0
1759848552.6825047,"ECG,,,,,,,,,2814",0
1759848552.6835048,"ECG,,,,,,,,,2269",0
1759848552.684505,"ECG,,,,,,,,,1672",0
1759848552.6865067,"ECG,,,,,,,,,1338",0
1759848552.6885066,"ECG,,,,,,,,,1322",0
1759848552.690506,"ECG,,,,,,,,,1719",0
1759848552.6925054,"ECG,,,,,,,,,2359",0
1759848552.6945052,"ECG,,,,,,,,,2954",0
1759848552.7015054,"IMU,-0.012,-0.097,0.874,0.974,1.530,2.713,89.811,-45.013,349.696",0
1759848552.7025084,"ECG,,,,,,,,,2944",0
1759848552.7025084,"ECG,,,,,,,,,2903",0
1759848552.7035081,"ECG,,,,,,,,,2860",0
1759848552.7035081,"ECG,,,,,,,,,2297",0
1759848552.7045074,"ECG,,,,,,,,,1664",0
1759848552.706506,"ECG,,,,,,,,,1305",0
1759848552.7085052,"ECG,,,,,,,,,1258",0
1759848552.710506,"ECG,,,,,,,,,1629",0
1759848552.712506,"ECG,,,,,,,,,2265",0
1759848552.7215059,"IMU,-0.016,-0.097,0.877,0.835,1.043,2.713,89.810,-45.012,349.677",0
1759848552.7215059,"ECG,,,,,,,,,2920",0
1759848552.7225065,"ECG,,,,,,,,,2874",0
1759848552.7225065,"ECG,,,,,,,,,2842",0
1759848552.7235057,"ECG,,,,,,,,,2798",0
1759848552.7235057,"ECG,,,,,,,,,2239",0
1759848552.7245061,"ECG,,,,,,,,,1631",0
1759848552.7265062,"ECG,,,,,,,,,1289",0
1759848552.7285054,"ECG,,,,,,,,,1272",0
1759848552.7305057,"ECG,,,,,,,,,1658",0
1759848552.7335064,"ECG,,,,,,,,,2303",0
1759848552.7345054,"ECG,,,,,,,,,2906",0
1759848552.7415059,"IMU,-0.020,-0.101,0.877,1.252,1.670,3.061,89.810,-45.012,349.406",0
1759848552.7415059,"ECG,,,,,,,,,2894",0
1759848552.7425063,"ECG,,,,,,,,,2856",0
1759848552.7425063,"ECG,,,,,,,,,2812",0
1759848552.7435057,"ECG,,,,,,,,,2231",0
1759848552.7445056,"ECG,,,,,,,,,1578",0
1759848552.7475064,"ECG,,,,,,,,,1211",0
